time,EMG1,EMG2
0.0005,0.0375366,-0.0653076
0.001,0.0360107,-0.172424
0.0015,0.0250244,-0.249939
0.002,0.0265503,-0.0744629
0.0025,0.0717163,0.0814819
0.003,0.0866699,0.115967
0.0035,0.0817871,0.0601196
0.004,0.0631714,-0.0891113
0.0045,0.0485229,-0.171509
0.005,0.00946045,-0.0961304
0.0055,-0.0238037,0.0622559
0.006,-0.0311279,0.0143433
0.0065,-0.0198364,-0.0341797
0.007,-0.0100708,-0.0253296
0.0075,-0.0350952,0.0167847
0.008,-0.0323486,0.0805664
0.0085,-0.00946045,0.105286
0.009,0.0201416,0.083313
0.0095,0.0286865,0.0354004
0.01,0.0280762,0.0119019
0.0105,0.0308228,0.0488281
0.011,0.0128174,0.0891113
0.0115,0.0100708,0.112
0.012,0.0137329,0.109253
0.0125,0.00854492,0.107422
0.013,0.00244141,0.0787354
0.0135,0.000305176,0.0473022
0.014,-0.0161743,-0.0354004
0.0145,-0.0268555,-0.134583
0.015,-0.0134277,-0.153198
0.0155,0.0109863,-0.10498
0.016,0.0244141,-0.0735474
0.0165,0.0238037,-0.0854492
0.017,0.0283813,-0.133057
0.0175,0.0408936,-0.155945
0.018,0.0418091,-0.159912
0.0185,0.0354004,-0.106506
0.019,0.032959,-0.0570679
0.0195,0.0286865,-0.0265503
0.02,0.0177002,-0.00549316
0.0205,0.00427246,0.0109863
0.021,-0.0213623,0.0271606
0.0215,-0.0491333,0.0424194
0.022,-0.0738525,0.0588989
0.0225,-0.0827026,0.0756836
0.023,-0.0723267,0.0689697
0.0235,-0.0485229,0.0741577
0.024,-0.0152588,0.0805664
0.0245,0.000610352,0.0866699
0.025,-0.00396729,0.118408
0.0255,-0.0405884,0.134277
0.026,-0.0662231,0.115662
0.0265,-0.0643921,0.0888062
0.027,-0.0430298,0.0604248
0.0275,-0.0323486,0.0292969
0.028,-0.0402832,-0.0195313
0.0285,-0.0405884,-0.110474
0.029,-0.0311279,-0.0772095
0.0295,-0.020752,-0.0140381
0.03,-0.0012207,-0.0592041
0.0305,0.039978,-0.0183105
0.031,0.0958252,0.0515747
0.0315,0.133667,0.0256348
0.032,0.126953,0.0302124
0.0325,0.090332,0.0265503
0.033,0.0610352,0.0396729
0.0335,0.0354004,0.0463867
0.034,0.0158691,-0.107727
0.0345,0.00366211,-0.293579
0.035,-0.00701904,-0.221252
0.0355,-0.00976563,-0.217285
0.036,-0.00579834,-0.138245
0.0365,-0.00457764,-0.00946045
0.037,-0.010376,-0.0628662
0.0375,-0.00823975,-0.291443
0.038,-0.00152588,-0.175171
0.0385,0.00244141,0.0247192
0.039,0.0,0.131531
0.0395,-0.00976563,0.157166
0.04,-0.0234985,0.150146
0.0405,-0.0350952,0.139465
0.041,-0.0393677,0.139771
0.0415,-0.0448608,0.0845337
0.042,-0.0546265,-0.050354
0.0425,-0.0695801,-0.0717163
0.043,-0.0805664,-0.0842285
0.0435,-0.0811768,-0.14679
0.044,-0.0735474,-0.125732
0.0445,-0.0350952,-0.132141
0.045,-0.00549316,-0.133362
0.0455,-0.00610352,-0.0427246
0.046,-0.0161743,0.0631714
0.0465,-0.0143433,0.111389
0.047,-0.00701904,0.102539
0.0475,-0.00366211,0.117188
0.048,0.00488281,0.168762
0.0485,0.015564,0.169067
0.049,0.0256348,0.113525
0.0495,0.0387573,0.0460815
0.05,0.032959,0.0256348
0.0505,0.00640869,0.0201416
0.051,-0.0344849,0.0372314
0.0515,-0.0500488,-0.108337
0.052,-0.0482178,-0.238342
0.0525,-0.0350952,-0.0979614
0.053,-0.0332642,-0.00244141
0.0535,-0.0372314,-0.00244141
0.054,-0.0387573,-0.0109863
0.0545,-0.0326538,0.0387573
0.055,-0.0201416,0.0616455
0.0555,-0.012207,0.126648
0.056,-0.0238037,0.308228
0.0565,-0.0366211,0.43396
0.057,-0.032959,0.288696
0.0575,-0.00610352,0.317383
0.058,0.0430298,0.0921631
0.0585,0.132446,-0.344849
0.059,0.209351,-0.423584
0.0595,0.253906,-0.284119
0.06,0.292358,-0.22644
0.0605,0.308228,-0.115967
0.061,0.27832,-0.00366211
0.0615,0.197754,0.0665283
0.062,0.11261,0.0888062
0.0625,0.0473022,0.050354
0.063,0.00823975,0.0259399
0.0635,-0.0238037,0.0241089
0.064,-0.0619507,0.0167847
0.0645,-0.111389,0.015564
0.065,-0.146179,0.00671387
0.0655,-0.155334,0.0012207
0.066,-0.144958,0.00274658
0.0665,-0.155029,-0.0262451
0.067,-0.169067,-0.0466919
0.0675,-0.156555,-0.0546265
0.068,-0.116577,-0.0601196
0.0685,-0.0695801,-0.0683594
0.069,-0.0323486,-0.0689697
0.0695,-0.0125122,-0.0387573
0.07,-0.00518799,0.0387573
0.0705,0.00152588,0.0686646
0.071,0.0164795,-0.00701904
0.0715,0.0204468,-0.00183105
0.072,0.0170898,0.0637817
0.0725,0.0198364,0.175476
0.073,0.0222778,0.200806
0.0735,0.0134277,0.178223
0.074,-0.00518799,0.155334
0.0745,-0.0366211,0.112305
0.075,-0.0515747,0.119629
0.0755,-0.0408936,0.105896
0.076,-0.0253296,-0.114746
0.0765,-0.0161743,-0.204773
0.077,-0.0308228,-0.0909424
0.0775,-0.0305176,-0.0830078
0.078,-0.0259399,-0.0439453
0.0785,-0.015564,-0.0680542
0.079,-0.000610352,-0.0473022
0.0795,0.0106812,0.0177002
0.08,0.0210571,0.062561
0.0805,0.0186157,0.0961304
0.081,-0.000305176,0.0579834
0.0815,-0.00335693,-0.219116
0.082,-0.032959,-0.542297
0.0825,-0.0881958,-0.535889
0.083,-0.0933838,-0.26123
0.0835,-0.0656128,0.0161743
0.084,-0.0280762,0.162964
0.0845,0.00793457,0.197449
0.085,0.0296021,0.166626
0.0855,0.0454712,0.0512695
0.086,0.055542,-0.0598145
0.0865,0.0372314,-0.105896
0.087,0.0466919,-0.189209
0.0875,0.0915527,-0.12085
0.088,0.0967407,0.0479126
0.0885,0.0839233,0.150146
0.089,0.0854492,0.132751
0.0895,0.0994873,0.0299072
0.09,0.115662,-0.0592041
0.0905,0.0994873,-0.148621
0.091,0.0720215,-0.246277
0.0915,0.067749,-0.227051
0.092,0.10498,-0.0576782
0.0925,0.118713,0.0411987
0.093,0.0958252,0.0726318
0.0935,0.0454712,0.0805664
0.094,0.00488281,0.0820923
0.0945,-0.0308228,0.0820923
0.095,-0.0588989,0.0793457
0.0955,-0.0674438,0.0775146
0.096,-0.071106,0.0772095
0.0965,-0.0808716,0.0744629
0.097,-0.0875854,0.0726318
0.0975,-0.0915527,0.0704956
0.098,-0.0982666,0.0671387
0.0985,-0.106506,0.0634766
0.099,-0.118713,0.0585938
0.0995,-0.106201,0.0552368
0.1,-0.0747681,0.0531006
0.1005,-0.0326538,0.050354
0.101,0.0177002,0.0476074
0.1015,0.0424194,0.0436401
0.102,0.0408936,0.0393677
0.1025,0.0286865,0.0338745
0.103,0.00732422,0.0302124
0.1035,-0.000915527,0.0454712
0.104,0.00427246,0.0564575
0.1045,0.00427246,0.0695801
0.105,-0.00610352,0.0820923
0.1055,-0.010376,0.0830078
0.106,-0.0128174,0.0860596
0.1065,-0.0213623,0.0927734
0.107,-0.0436401,0.114441
0.1075,-0.0750732,0.121765
0.108,-0.103455,0.0952148
0.1085,-0.0930786,0.0695801
0.109,-0.0497437,0.0186157
0.1095,-0.0161743,-0.0695801
0.11,-0.0143433,-0.155945
0.1105,-0.0253296,-0.295715
0.111,-0.0305176,-0.298157
0.1115,-0.0247192,-0.26001
0.112,-0.00946045,-0.222473
0.1125,0.00610352,-0.130615
0.113,0.017395,-0.0585938
0.1135,0.0234985,-0.0708008
0.114,0.0415039,-0.164795
0.1145,0.06073,-0.109863
0.115,0.0631714,0.00274658
0.1155,0.0726318,0.0897217
0.116,0.102844,0.150452
0.1165,0.136414,0.160828
0.117,0.146179,0.122986
0.1175,0.137634,0.0869751
0.118,0.112915,0.0680542
0.1185,0.0817871,0.0701904
0.119,0.0424194,0.0775146
0.1195,0.010376,0.0753784
0.12,-0.00366211,0.0570679
0.1205,-0.0106812,0.0384521
0.121,-0.0125122,0.0
0.1215,-0.00701904,-0.0442505
0.122,-0.000610352,-0.0588989
0.1225,-0.00457764,-0.0817871
0.123,-0.020752,-0.062561
0.1235,-0.0198364,-0.0299072
0.124,-0.015564,-0.0192261
0.1245,-0.0088501,-0.0140381
0.125,-0.010376,-0.0811768
0.1255,-0.0332642,-0.117493
0.126,-0.055542,-0.0579834
0.1265,-0.072937,-0.0289917
0.127,-0.0970459,0.027771
0.1275,-0.129089,0.0756836
0.128,-0.130615,0.123901
0.1285,-0.102234,0.130005
0.129,-0.0830078,0.128479
0.1295,-0.0622559,0.158386
0.13,-0.0384521,0.188599
0.1305,-0.017395,0.205994
0.131,-0.0088501,0.161133
0.1315,-0.00579834,0.220642
0.132,0.0192261,0.288086
0.1325,0.0439453,0.171509
0.133,0.0576782,0.0967407
0.1335,0.0588989,-0.00732422
0.134,0.0527954,-0.383301
0.1345,0.0500488,-0.495605
0.135,0.0354004,-0.48584
0.1355,0.010376,-0.387878
0.136,-0.0106812,-0.228271
0.1365,-0.0250244,-0.318604
0.137,-0.0262451,-0.389404
0.1375,-0.022583,-0.35614
0.138,-0.0338745,-0.135193
0.1385,-0.0531006,0.0430298
0.139,-0.0662231,0.0363159
0.1395,-0.0549316,0.0408936
0.14,-0.0308228,0.134277
0.1405,-0.0109863,0.172119
0.141,-0.00274658,0.124512
0.1415,-0.0109863,0.0747681
0.142,-0.00610352,0.0643921
0.1425,0.00793457,0.0933838
0.143,0.0326538,0.0952148
0.1435,0.0430298,0.0466919
0.144,0.0292969,-0.0534058
0.1445,0.00610352,-0.136108
0.145,-0.0549316,-0.0653076
0.1455,-0.0942993,0.0921631
0.146,-0.102844,0.177917
0.1465,-0.0762939,0.145874
0.147,-0.0204468,0.0991821
0.1475,0.0256348,0.0979614
0.148,0.0384521,0.0967407
0.1485,0.0637817,0.0958252
0.149,0.115051,0.0881958
0.1495,0.13855,0.0772095
0.15,0.125122,0.0619507
0.1505,0.101624,0.0506592
0.151,0.0817871,0.0387573
0.1515,0.0869751,0.0366211
0.152,0.0958252,0.0314331
0.1525,0.0857544,0.0204468
0.153,0.0802612,0.0112915
0.1535,0.0619507,0.0292969
0.154,0.0561523,0.0442505
0.1545,0.0628662,0.0598145
0.155,0.0891113,0.0845337
0.1555,0.102844,0.0463867
0.156,0.072937,-0.00213623
0.1565,0.0100708,0.0112915
0.157,-0.0439453,0.0531006
0.1575,-0.0732422,0.0576782
0.158,-0.0946045,0.0634766
0.1585,-0.126038,0.0543213
0.159,-0.128479,0.0210571
0.1595,-0.126953,0.032959
0.16,-0.100708,0.0827026
0.1605,-0.0479126,-0.0292969
0.161,-0.0256348,-0.154114
0.1615,-0.0231934,-0.0863647
0.162,-0.0250244,0.00518799
0.1625,-0.0259399,0.0311279
0.163,-0.0250244,0.0878906
0.1635,-0.0189209,0.0595093
0.164,-0.0149536,-0.071106
0.1645,-0.00823975,-0.161438
0.165,-0.00427246,-0.203552
0.1655,0.017395,-0.39978
0.166,0.0320435,-0.721436
0.1665,0.0473022,-0.835266
0.167,0.0576782,-0.574646
0.1675,0.0765991,-0.227356
0.168,0.0900269,0.0177002
0.1685,0.072937,0.159607
0.169,0.0384521,0.177917
0.1695,0.0216675,0.138245
0.17,0.0112915,0.085144
0.1705,-0.00946045,0.0631714
0.171,-0.0326538,0.0842285
0.1715,-0.050354,0.101624
0.172,-0.0622559,0.115662
0.1725,-0.0650024,0.126038
0.173,-0.0674438,0.130005
0.1735,-0.0756836,0.127258
0.174,-0.0775146,0.12146
0.1745,-0.0646973,0.108032
0.175,-0.0549316,0.111694
0.1755,-0.050354,0.127563
0.176,-0.0418091,0.132141
0.1765,-0.0341797,0.145264
0.177,-0.0268555,0.146484
0.1775,-0.022583,0.144043
0.178,-0.0106812,0.149536
0.1785,0.00183105,0.121155
0.179,0.0012207,0.085144
0.1795,-0.000610352,0.0579834
0.18,-0.00396729,0.0543213
0.1805,-0.00701904,0.0671387
0.181,-0.00213623,-0.0231934
0.1815,0.0131226,-0.240479
0.182,0.0274658,-0.223999
0.1825,0.0137329,-0.141296
0.183,0.0167847,-0.121155
0.1835,0.038147,-0.115967
0.184,0.045166,-0.107117
0.1845,0.0241089,-0.0772095
0.185,0.0180054,-0.0231934
0.1855,0.0247192,0.0192261
0.186,0.0247192,0.101624
0.1865,0.0216675,0.170898
0.187,0.00488281,0.198669
0.1875,-0.0320435,0.210266
0.188,-0.0531006,0.188904
0.1885,-0.072937,0.150146
0.189,-0.0878906,0.142822
0.1895,-0.078125,0.127563
0.19,-0.0518799,0.0961304
0.1905,-0.0387573,0.083313
0.191,-0.0180054,0.0997925
0.1915,0.00854492,0.0421143
0.192,0.0332642,0.0350952
0.1925,0.045166,-0.178528
0.193,0.0512695,-0.406494
0.1935,0.0540161,-0.368958
0.194,0.0436401,-0.250854
0.1945,0.0427246,-0.108337
0.195,0.0585938,-0.146179
0.1955,0.0582886,-0.167236
0.196,0.0292969,0.0476074
0.1965,0.00366211,0.0799561
0.197,0.0198364,0.00732422
0.1975,0.0418091,0.0305176
0.198,0.0585938,0.0857544
0.1985,0.0613403,0.180969
0.199,0.0631714,0.297546
0.1995,0.0534058,0.52948
0.2,0.0222778,0.587463
0.2005,-0.00946045,0.471802
0.201,-0.0180054,0.305481
0.2015,-0.0201416,0.0384521
0.202,-0.045166,-0.134277
0.2025,-0.0790405,-0.236206
0.203,-0.0820923,-0.291138
0.2035,-0.0488281,-0.214233
0.204,-0.0186157,-0.205383
0.2045,-0.00610352,-0.372009
0.205,-0.00518799,-0.707092
0.2055,0.015564,-0.833435
0.206,0.027771,-0.727844
0.2065,0.0271606,-0.494385
0.207,0.0143433,-0.180664
0.2075,0.00305176,0.0164795
0.208,0.00610352,0.0720215
0.2085,0.0195313,0.093689
0.209,0.0390625,0.124207
0.2095,0.0558472,0.148315
0.21,0.06073,0.0595093
0.2105,0.0762939,-0.245361
0.211,0.0845337,-0.232239
0.2115,0.0817871,0.0500488
0.212,0.0799561,0.194092
0.2125,0.0704956,0.132446
0.213,0.0427246,0.134888
0.2135,0.0222778,0.191345
0.214,0.0100708,0.146179
0.2145,0.00762939,0.122986
0.215,-0.00244141,0.144958
0.2155,-0.00854492,0.16449
0.216,-0.0115967,0.117188
0.2165,-0.0262451,0.0576782
0.217,-0.0454712,0.0741577
0.2175,-0.0564575,0.15625
0.218,-0.0671387,0.190125
0.2185,-0.0866699,0.241089
0.219,-0.0982666,0.342407
0.2195,-0.109863,0.360718
0.22,-0.12207,0.318909
0.2205,-0.116882,0.286865
0.221,-0.102234,0.29541
0.2215,-0.0839233,0.240479
0.222,-0.0595093,0.159302
0.2225,-0.0283813,0.0973511
0.223,-0.0143433,-0.0793457
0.2235,-0.0201416,-0.150146
0.224,-0.0192261,-0.213928
0.2245,0.0198364,-0.441284
0.225,0.071106,-0.765381
0.2255,0.0732422,-0.671997
0.226,0.0119019,-0.235291
0.2265,-0.043335,-0.0582886
0.227,-0.0616455,-0.201416
0.2275,-0.0354004,-0.222778
0.228,0.00579834,-0.192871
0.2285,0.0134277,-0.167542
0.229,-0.00640869,-0.117493
0.2295,-0.0262451,-0.0341797
0.23,-0.0234985,0.0259399
0.2305,-0.0256348,0.0537109
0.231,-0.0192261,0.0683594
0.2315,-0.00183105,0.0793457
0.232,0.00732422,0.0875854
0.2325,-0.00488281,0.0891113
0.233,-0.0128174,0.0888062
0.2335,-0.00366211,0.085144
0.234,0.0140381,0.0866699
0.2345,0.0259399,0.0888062
0.235,0.0427246,0.0906372
0.2355,0.0650024,0.0921631
0.236,0.0991821,0.0906372
0.2365,0.085144,0.0836182
0.237,0.0509644,0.0741577
0.2375,0.0234985,0.0695801
0.238,0.0338745,0.0643921
0.2385,0.0512695,0.0598145
0.239,0.0665283,0.0454712
0.2395,0.0683594,0.0143433
0.24,0.0628662,0.000305176
0.2405,0.0631714,0.0180054
0.241,0.0823975,0.0283813
0.2415,0.0820923,0.0305176
0.242,0.062561,0.0262451
0.2425,0.0421143,0.0228882
0.243,0.0335693,0.0189209
0.2435,0.0189209,0.0158691
0.244,-0.00396729,0.0213623
0.2445,-0.0219727,0.0283813
0.245,-0.0314331,0.0326538
0.2455,-0.0384521,0.0430298
0.246,-0.0549316,0.0518799
0.2465,-0.0674438,0.0436401
0.247,-0.0698853,0.038147
0.2475,-0.0860596,0.0344849
0.248,-0.0967407,0.0259399
0.2485,-0.102844,0.00976563
0.249,-0.0866699,-0.0241089
0.2495,-0.0698853,-0.0411987
0.25,-0.0827026,-0.0534058
0.2505,-0.0869751,-0.0564575
0.251,-0.0836182,-0.0387573
0.2515,-0.0747681,-0.0216675
0.252,-0.0485229,-0.0860596
0.2525,-0.039978,-0.279236
0.253,-0.0500488,-0.235596
0.2535,-0.0515747,-0.0790405
0.254,-0.0360107,-0.0231934
0.2545,-0.0112915,0.0317383
0.255,0.015564,0.144958
0.2555,0.0262451,0.0473022
0.256,0.0180054,-0.0906372
0.2565,0.0302124,-0.0906372
0.257,0.0653076,-0.0524902
0.2575,0.0970459,-0.0491333
0.258,0.124207,-0.0613403
0.2585,0.14679,0.0396729
0.259,0.163574,0.177002
0.2595,0.169067,0.276184
0.26,0.171814,0.333252
0.2605,0.135193,0.346069
0.261,0.0671387,0.274963
0.2615,-0.0100708,0.072937
0.262,-0.0671387,0.0628662
0.2625,-0.0939941,0.127869
0.263,-0.100098,0.164795
0.2635,-0.0949097,0.194702
0.264,-0.101318,0.131226
0.2645,-0.138245,-0.0912476
0.265,-0.160522,-0.405884
0.2655,-0.13092,-0.53772
0.266,-0.0775146,-0.430603
0.2665,-0.0512695,-0.336914
0.267,-0.0442505,-0.369568
0.2675,-0.032959,-0.256958
0.268,-0.00549316,-0.0302124
0.2685,0.017395,0.109863
0.269,0.0259399,0.178223
0.2695,0.0354004,0.172119
0.27,0.0527954,0.106506
0.2705,0.0845337,-0.00793457
0.271,0.113525,-0.12085
0.2715,0.115051,-0.226135
0.272,0.0756836,-0.198364
0.2725,0.0344849,-0.0283813
0.273,0.0198364,-0.0332642
0.2735,0.0372314,-0.295715
0.274,0.0704956,-0.386047
0.2745,0.0918579,-0.181885
0.275,0.0802612,0.0558472
0.2755,0.0457764,0.193787
0.276,0.0131226,0.229797
0.2765,-0.0228882,0.267334
0.277,-0.043335,0.291138
0.2775,-0.0534058,0.230103
0.278,-0.0463867,0.0970459
0.2785,-0.0540161,0.0704956
0.279,-0.0735474,0.130615
0.2795,-0.0735474,0.15625
0.28,-0.0476074,0.179138
0.2805,-0.0201416,0.105286
0.281,-0.0149536,-0.0338745
0.2815,-0.00549316,-0.174866
0.282,-0.00244141,-0.32074
0.2825,-0.0186157,-0.523682
0.283,-0.0335693,-0.559998
0.2835,-0.0540161,-0.379639
0.284,-0.0683594,-0.100098
0.2845,-0.0701904,0.141907
0.285,-0.0610352,0.202637
0.2855,-0.03479,0.170288
0.286,0.00427246,0.166626
0.2865,0.0521851,0.219727
0.287,0.0662231,0.281677
0.2875,0.0558472,0.209961
0.288,0.0540161,0.118103
0.2885,0.0509644,0.0897217
0.289,0.0357056,0.0888062
0.2895,0.0317383,0.0949097
0.29,0.0723267,0.0958252
0.2905,0.106201,0.0909424
0.291,0.108948,0.0793457
0.2915,0.0881958,0.0744629
0.292,0.0506592,0.0747681
0.2925,0.0134277,0.0491333
0.293,-0.0198364,0.0161743
0.2935,-0.0747681,0.00671387
0.294,-0.116882,0.027771
0.2945,-0.133667,0.0335693
0.295,-0.115051,-0.000915527
0.2955,-0.090332,-0.0363159
0.296,-0.0421143,-0.0280762
0.2965,-0.012207,-0.0088501
0.297,0.00183105,-0.00762939
0.2975,-0.00762939,-0.027771
0.298,-0.00518799,-0.057373
0.2985,-0.0088501,-0.0482178
0.299,-0.0262451,0.0222778
0.2995,-0.0241089,0.0701904
0.3,-0.0140381,0.0192261
0.3005,0.00640869,-0.0231934
0.301,0.0259399,-0.0604248
0.3015,0.0512695,-0.0836182
0.302,0.0942993,-0.0598145
0.3025,0.124817,-0.0311279
0.303,0.139465,-0.0250244
0.3035,0.150452,-0.055542
0.304,0.116882,-0.0170898
0.3045,0.0585938,-0.14679
0.305,0.00427246,-0.256348
0.3055,-0.0311279,-0.0909424
0.306,-0.0344849,-0.0128174
0.3065,-0.0387573,-0.0363159
0.307,-0.0558472,-0.0619507
0.3075,-0.0811768,-0.0454712
0.308,-0.0814819,-0.0213623
0.3085,-0.0546265,-0.00793457
0.309,-0.0302124,0.00244141
0.3095,-0.0265503,0.0088501
0.31,-0.0299072,0.00640869
0.3105,-0.0305176,0.0192261
0.311,-0.0341797,0.0292969
0.3115,-0.0479126,0.0701904
0.312,-0.0799561,0.123291
0.3125,-0.0921631,0.129395
0.313,-0.0866699,0.112
0.3135,-0.0744629,0.0942993
0.314,-0.0592041,0.115662
0.3145,-0.0521851,0.15564
0.315,-0.0543213,0.193481
0.3155,-0.0540161,0.152283
0.316,-0.0350952,0.137634
0.3165,-0.0234985,0.11322
0.317,0.00335693,-0.0427246
0.3175,0.0390625,-0.170593
0.318,0.0466919,-0.187988
0.3185,0.062561,0.00305176
0.319,0.0732422,0.232239
0.3195,0.085144,0.169373
0.32,0.0820923,-0.117188
0.3205,0.0454712,-0.192261
0.321,0.027771,-0.281982
0.3215,0.0274658,-0.439148
0.322,0.00976563,-0.288696
0.3225,-0.0170898,-0.0985718
0.323,-0.017395,-0.00213623
0.3235,0.0158691,0.0219727
0.324,0.0534058,-0.00579834
0.3245,0.0900269,-0.0866699
0.325,0.0976563,-0.0836182
0.3255,0.0683594,-0.0558472
0.326,0.0323486,-0.00457764
0.3265,0.0161743,0.0375366
0.327,0.0158691,0.088501
0.3275,0.0305176,0.180359
0.328,0.0241089,0.239563
0.3285,0.0167847,0.177307
0.329,0.0271606,-0.0613403
0.3295,0.0418091,-0.317383
0.33,0.0494385,-0.280457
0.3305,0.0387573,-0.0701904
0.331,0.0125122,-0.0689697
0.3315,-0.00457764,-0.172729
0.332,-0.010376,-0.224609
0.3325,-0.00335693,-0.104675
0.333,0.0088501,0.0109863
0.3335,0.0183105,-0.0683594
0.334,0.0268555,-0.248718
0.3345,0.0213623,-0.0939941
0.335,0.00732422,0.181885
0.3355,-0.020752,0.371094
0.336,-0.0494385,0.413513
0.3365,-0.062561,0.333557
0.337,-0.0726318,0.262756
0.3375,-0.0802612,0.210571
0.338,-0.0842285,0.200806
0.3385,-0.0854492,0.213318
0.339,-0.0924683,0.19989
0.3395,-0.111694,0.161133
0.34,-0.106812,0.121155
0.3405,-0.0866699,0.0640869
0.341,-0.0613403,-0.0317383
0.3415,-0.0357056,-0.135193
0.342,-0.020752,-0.248108
0.3425,-0.0137329,-0.317383
0.343,-0.00671387,-0.205383
0.3435,-0.00793457,-0.057373
0.344,-0.0146484,0.0869751
0.3445,-0.0158691,0.101013
0.345,-0.03479,0.0454712
0.3455,-0.0415039,-0.010376
0.346,-0.0280762,-0.0726318
0.3465,-0.022583,-0.0692749
0.347,0.0167847,0.0296021
0.3475,0.0457764,0.130615
0.348,0.0454712,0.150757
0.3485,0.0219727,0.0918579
0.349,0.020752,-0.0708008
0.3495,0.0299072,-0.203857
0.35,0.0244141,-0.274963
0.3505,0.000915527,-0.318909
0.351,-0.0283813,-0.305481
0.3515,-0.0469971,-0.164185
0.352,-0.0570679,-0.137939
0.3525,-0.0299072,-0.0720215
0.353,0.00793457,-0.0100708
0.3535,0.0738525,-0.015564
0.354,0.148621,-0.0204468
0.3545,0.192566,-0.0286865
0.355,0.207214,-0.0354004
0.3555,0.207214,0.0161743
0.356,0.188904,0.0350952
0.3565,0.147095,0.0439453
0.357,0.0930786,0.0405884
0.3575,0.0350952,0.0231934
0.358,-0.00610352,0.022583
0.3585,-0.0296021,0.0665283
0.359,-0.0393677,0.0778198
0.3595,-0.0509644,0.0585938
0.36,-0.0704956,0.0485229
0.3605,-0.0732422,0.0643921
0.361,-0.127869,0.0866699
0.3615,-0.19043,0.108948
0.362,-0.226746,0.113831
0.3625,-0.194397,0.102234
0.363,-0.135193,0.0683594
0.3635,-0.0802612,0.0588989
0.364,-0.0354004,0.0805664
0.3645,-0.0131226,0.0747681
0.365,0.0109863,0.0775146
0.3655,0.0167847,0.0219727
0.366,0.00946045,0.0119019
0.3665,0.00671387,0.0671387
0.367,0.00305176,0.0927734
0.3675,-0.00152588,0.10376
0.368,0.00518799,0.12085
0.3685,0.0192261,0.12085
0.369,0.0317383,0.1828
0.3695,0.0567627,0.256958
0.37,0.0613403,0.174255
0.3705,0.0387573,-0.00610352
0.371,0.0436401,-0.106201
0.3715,0.0881958,-0.140686
0.372,0.142517,-0.179443
0.3725,0.131531,-0.239563
0.373,0.0958252,-0.319824
0.3735,0.0817871,-0.366821
0.374,0.0759888,-0.271301
0.3745,0.0534058,-0.132446
0.375,0.0296021,-0.0262451
0.3755,0.00396729,-0.16571
0.376,-0.0106812,-0.306396
0.3765,-0.0231934,-0.104675
0.377,-0.0204468,0.0570679
0.3775,-0.0164795,0.114746
0.378,-0.0106812,0.118103
0.3785,-0.00335693,0.0701904
0.379,-0.00213623,0.0595093
0.3795,-0.000915527,0.334473
0.38,-0.00549316,0.438538
0.3805,-0.00732422,0.270996
0.381,-0.00915527,0.111694
0.3815,-0.00427246,0.0106812
0.382,0.00366211,-0.0396729
0.3825,-0.00823975,-0.050354
0.383,-0.0335693,-0.171814
0.3835,-0.0637817,-0.292969
0.384,-0.0802612,-0.119324
0.3845,-0.0839233,0.03479
0.385,-0.0750732,0.0881958
0.3855,-0.0561523,0.0543213
0.386,-0.0363159,-0.149536
0.3865,-0.0308228,-0.19165
0.387,-0.0363159,-0.0512695
0.3875,-0.0326538,-0.0195313
0.388,-0.0234985,-0.0494385
0.3885,-0.0134277,-0.0292969
0.389,-0.0241089,0.0146484
0.3895,-0.043335,0.0311279
0.39,-0.057373,0.0268555
0.3905,-0.0482178,0.0457764
0.391,-0.0357056,0.117493
0.3915,-0.0314331,0.124817
0.392,-0.0256348,0.111694
0.3925,-0.020752,-0.00701904
0.393,-0.0198364,-0.015564
0.3935,-0.0265503,0.131531
0.394,-0.0177002,0.21698
0.3945,-0.0128174,0.218201
0.395,-0.000610352,0.149841
0.3955,0.0112915,0.0787354
0.396,0.0244141,-0.0149536
0.3965,0.0164795,-0.20874
0.397,0.00335693,-0.280457
0.3975,0.00640869,-0.470581
0.398,0.0198364,-0.514832
0.3985,0.0210571,-0.110168
0.399,0.0296021,0.0640869
0.3995,0.0500488,0.0210571
0.4,0.06073,-0.0488281
0.4005,0.0604248,-0.136108
0.401,0.0650024,-0.127869
0.4015,0.0723267,-0.0595093
0.402,0.0769043,0.0518799
0.4025,0.0820923,0.144653
0.403,0.107422,0.136719
0.4035,0.130005,0.0570679
0.404,0.129089,0.00518799
0.4045,0.0997925,-0.0662231
0.405,0.067749,-0.124207
0.4055,0.0442505,-0.100708
0.406,0.0222778,-0.032959
0.4065,-0.00213623,0.0515747
0.407,-0.0323486,0.0933838
0.4075,-0.0482178,0.124512
0.408,-0.0549316,0.125122
0.4085,-0.0546265,0.100708
0.409,-0.062561,0.0839233
0.4095,-0.0823975,0.0747681
0.41,-0.0952148,0.0997925
0.4105,-0.0979614,0.138245
0.411,-0.0769043,0.106201
0.4115,-0.043335,-0.043335
0.412,-0.00640869,-0.112305
0.4125,0.0149536,-0.0296021
0.413,0.0219727,0.0509644
0.4135,0.0436401,0.0671387
0.414,0.0534058,0.0177002
0.4145,0.0378418,-0.0390625
0.415,0.0152588,-0.0146484
0.4155,0.000915527,0.0268555
0.416,-0.0012207,0.0390625
0.4165,-0.00915527,0.0485229
0.417,-0.043335,0.0466919
0.4175,-0.0634766,0.0442505
0.418,-0.0509644,0.0415039
0.4185,-0.0604248,0.0167847
0.419,-0.0814819,-0.100708
0.4195,-0.085144,-0.111084
0.42,-0.0619507,-0.0488281
0.4205,-0.0378418,-0.00579834
0.421,-0.0311279,0.00732422
0.4215,-0.0463867,-0.00244141
0.422,-0.0357056,-0.000610352
0.4225,-0.0222778,0.00183105
0.423,-0.0384521,0.00610352
0.4235,-0.0778198,0.00152588
0.424,-0.116577,-0.00244141
0.4245,-0.100708,0.0186157
0.425,-0.0604248,0.00946045
0.4255,-0.00579834,0.0344849
0.426,0.050354,0.0741577
0.4265,0.0991821,0.088501
0.427,0.133057,0.0869751
0.4275,0.124512,0.11322
0.428,0.0708008,0.0424194
0.4285,0.0109863,-0.0271606
0.429,-0.0183105,-0.0158691
0.4295,-0.00396729,-0.0146484
0.43,0.0387573,-0.0326538
0.4305,0.0494385,-0.000610352
0.431,0.0198364,0.0979614
0.4315,0.00518799,0.128784
0.432,0.00946045,0.0582886
0.4325,0.0317383,0.00244141
0.433,0.0640869,0.00610352
0.4335,0.109558,0.0360107
0.434,0.129089,0.0497437
0.4345,0.136719,0.0634766
0.435,0.158081,0.101624
0.4355,0.167847,0.0228882
0.436,0.144348,-0.246887
0.4365,0.110168,-0.354919
0.437,0.0552368,-0.181274
0.4375,0.00427246,-0.039978
0.438,-0.038147,0.0637817
0.4385,-0.0793457,0.132751
0.439,-0.104065,0.158081
0.4395,-0.110779,0.111084
0.44,-0.111389,-0.131531
0.4405,-0.0933838,-0.23468
0.441,-0.0650024,-0.365295
0.4415,-0.0469971,-0.853882
0.442,-0.0354004,-0.871582
0.4425,-0.0338745,-0.272827
0.443,-0.039978,0.137329
0.4435,-0.0357056,0.117798
0.444,-0.0244141,0.0622559
0.4445,-0.0195313,0.0695801
0.445,-0.0192261,0.0839233
0.4455,-0.0137329,0.1651
0.446,-0.00244141,0.240479
0.4465,0.00244141,0.164795
0.447,0.00427246,0.0259399
0.4475,0.00610352,0.0411987
0.448,0.0137329,0.10498
0.4485,0.0213623,0.00579834
0.449,0.0119019,0.00793457
0.4495,-0.000610352,0.0701904
0.45,-0.0247192,0.0921631
0.4505,-0.0479126,0.0924683
0.451,-0.0415039,0.088501
0.4515,-0.0308228,0.0860596
0.452,-0.0506592,0.0909424
0.4525,-0.0735474,0.0918579
0.453,-0.0845337,0.0915527
0.4535,-0.0811768,0.0869751
0.454,-0.055542,0.0793457
0.4545,-0.0665283,0.0714111
0.455,-0.0924683,0.0622559
0.4555,-0.103455,0.0521851
0.456,-0.0973511,0.0357056
0.4565,-0.0689697,0.0375366
0.457,-0.0497437,0.050354
0.4575,-0.0170898,0.0314331
0.458,0.00732422,0.0170898
0.4585,0.0234985,0.00854492
0.459,0.0314331,0.0112915
0.4595,0.0360107,0.0247192
0.46,0.0430298,0.0350952
0.4605,0.0622559,0.0500488
0.461,0.105286,0.0512695
0.4615,0.141296,0.0411987
0.462,0.145874,-0.0296021
0.4625,0.128174,-0.119934
0.463,0.118103,-0.0964355
0.4635,0.12085,0.0808716
0.464,0.126648,0.101929
0.4645,0.150452,-0.0274658
0.465,0.114136,-0.062561
0.4655,0.0653076,-0.0653076
0.466,0.0280762,-0.187988
0.4665,0.022583,-0.175781
0.467,0.0424194,-0.0424194
0.4675,0.0500488,0.0195313
0.468,0.0189209,0.0238037
0.4685,-0.0158691,-0.020752
0.469,-0.0408936,-0.0799561
0.4695,-0.0531006,-0.138245
0.47,-0.0585938,-0.140381
0.4705,-0.0598145,-0.0994873
0.471,-0.0567627,-0.0964355
0.4715,-0.0592041,-0.06073
0.472,-0.0640869,0.0610352
0.4725,-0.0775146,0.151367
0.473,-0.088501,0.187988
0.4735,-0.0830078,0.202026
0.474,-0.0656128,0.144348
0.4745,-0.0418091,0.129395
0.475,-0.0216675,0.243835
0.4755,-0.0180054,0.265503
0.476,-0.0143433,0.237427
0.4765,-0.0128174,0.207825
0.477,-0.00457764,0.12146
0.4775,0.00915527,-0.00274658
0.478,0.020752,-0.273132
0.4785,0.0289917,-0.733643
0.479,0.032959,-0.644836
0.4795,0.0238037,-0.279541
0.48,-0.00457764,-0.0546265
0.4805,-0.0378418,0.0131226
0.481,-0.0598145,-0.0491333
0.4815,-0.0552368,-0.133057
0.482,-0.057373,-0.0823975
0.4825,-0.0634766,0.0
0.483,-0.0643921,0.0585938
0.4835,-0.0671387,0.0790405
0.484,-0.0805664,0.0942993
0.4845,-0.0823975,0.131226
0.485,-0.0656128,0.164795
0.4855,-0.0244141,0.177917
0.486,0.00671387,0.206909
0.4865,0.0247192,0.220032
0.487,0.0344849,0.227051
0.4875,0.03479,0.214233
0.488,0.032959,0.167236
0.4885,0.0274658,0.0622559
0.489,0.0234985,-0.0183105
0.4895,0.0161743,-0.0341797
0.49,0.00701904,-0.0540161
0.4905,0.00152588,-0.145874
0.491,0.0,-0.218506
0.4915,0.0183105,-0.288391
0.492,0.0268555,-0.117188
0.4925,0.0314331,-0.0592041
0.493,0.0564575,-0.151062
0.4935,0.0952148,-0.231323
0.494,0.100098,-0.169373
0.4945,0.0897217,-0.0323486
0.495,0.072937,-0.0131226
0.4955,0.0488281,-0.085144
0.496,0.0292969,-0.18158
0.4965,0.0198364,-0.188293
0.497,0.0189209,-0.0836182
0.4975,0.020752,0.0115967
0.498,0.0271606,0.0701904
0.4985,0.0384521,0.1297
0.499,0.0402832,0.190735
0.4995,0.0354004,0.235291
0.5,0.0262451,0.249023
0.5005,0.0180054,0.249939
0.501,0.0140381,0.237122
0.5015,0.00457764,0.217896
0.502,0.00427246,0.177612
0.5025,0.012207,0.0152588
0.503,0.0112915,-0.132751
0.5035,0.00335693,-0.0784302
0.504,-0.0088501,-0.118103
0.5045,-0.00976563,-0.130615
0.505,-0.00427246,-0.263062
0.5055,-0.00793457,-0.306702
0.506,-0.0219727,-0.263367
0.5065,-0.0341797,-0.195923
0.507,-0.0317383,-0.116577
0.5075,-0.0198364,-0.0466919
0.508,-0.0222778,-0.00335693
0.5085,-0.0363159,0.0378418
0.509,-0.0476074,0.0152588
0.5095,-0.0744629,-0.0900269
0.51,-0.125427,-0.103455
0.5105,-0.157776,-0.0146484
0.511,-0.173035,0.106506
0.5115,-0.15625,0.28595
0.512,-0.128174,0.311584
0.5125,-0.0869751,0.186768
0.513,-0.045166,0.116577
0.5135,-0.00823975,0.0854492
0.514,0.00732422,0.0790405
0.5145,0.0253296,0.0906372
0.515,0.0274658,0.0912476
0.5155,0.0292969,0.158386
0.516,0.0485229,0.20813
0.5165,0.072937,0.186768
0.517,0.102539,0.148926
0.5175,0.123596,0.101318
0.518,0.147095,0.0842285
0.5185,0.13916,0.0839233
0.519,0.0970459,0.00854492
0.5195,0.0708008,-0.114136
0.52,0.0396729,-0.173035
0.5205,-0.00579834,-0.0314331
0.521,-0.0476074,0.24353
0.5215,-0.0747681,0.282593
0.522,-0.0765991,-0.204163
0.5225,-0.0518799,-0.512085
0.523,-0.0390625,-0.228577
0.5235,-0.0494385,-0.0338745
0.524,-0.0219727,-0.0177002
0.5245,0.0375366,-0.120239
0.525,0.0817871,-0.174255
0.5255,0.0799561,-0.128784
0.526,0.0735474,-0.0473022
0.5265,0.0708008,-0.017395
0.527,0.0747681,-0.151367
0.5275,0.0701904,-0.26123
0.528,0.0323486,-0.263672
0.5285,0.000915527,-0.170593
0.529,-0.012207,-0.0665283
0.5295,-0.0311279,0.00671387
0.53,-0.0271606,0.0643921
0.5305,-0.00793457,0.100708
0.531,0.00183105,0.113525
0.5315,-0.00518799,0.111389
0.532,-0.00488281,0.116882
0.5325,0.0106812,0.137939
0.533,0.0231934,0.0961304
0.5335,0.0152588,0.0439453
0.534,-0.000305176,0.010376
0.5345,-0.0189209,0.0714111
0.535,-0.0338745,0.157776
0.5355,-0.0421143,0.220642
0.536,-0.0463867,0.281982
0.5365,-0.0466919,0.251465
0.537,-0.0387573,0.0222778
0.5375,-0.0268555,-0.262451
0.538,-0.0213623,-0.403137
0.5385,-0.0125122,-0.364075
0.539,-0.00396729,-0.133972
0.5395,-0.00244141,-0.015564
0.54,-0.0195313,-0.0109863
0.5405,-0.0302124,-0.0491333
0.541,-0.032959,-0.0805664
0.5415,-0.0305176,-0.111694
0.542,-0.0363159,-0.107727
0.5425,-0.0546265,-0.0509644
0.543,-0.0601196,0.0164795
0.5435,-0.0448608,0.0387573
0.544,-0.0228882,0.0360107
0.5445,-0.00976563,0.0476074
0.545,-0.0112915,0.0848389
0.5455,-0.0140381,0.10498
0.546,-0.0164795,0.0811768
0.5465,-0.00915527,0.0518799
0.547,-0.00946045,0.0808716
0.5475,-0.00305176,0.153198
0.548,0.0119019,0.189819
0.5485,0.0119019,0.118713
0.549,0.00579834,-0.0183105
0.5495,-0.000305176,0.00915527
0.55,-0.00396729,0.0653076
0.5505,-0.00335693,0.090332
0.551,-0.0195313,0.0985718
0.5515,-0.0256348,0.103149
0.552,-0.0213623,0.0811768
0.5525,-0.0143433,-0.00213623
0.553,0.00244141,-0.198059
0.5535,0.0250244,-0.386353
0.554,0.0369263,-0.218811
0.5545,0.0289917,-0.00244141
0.555,0.0164795,0.0830078
0.5555,0.020752,0.0994873
0.556,0.00946045,0.10376
0.5565,-0.00610352,0.1651
0.557,-0.0125122,0.162964
0.5575,0.0112915,0.145264
0.558,0.0421143,0.115356
0.5585,0.065918,0.12207
0.559,0.0878906,0.161133
0.5595,0.124512,0.133362
0.56,0.144348,-0.0369263
0.5605,0.140076,-0.172729
0.561,0.110779,-0.135498
0.5615,0.071106,-0.0357056
0.562,0.0280762,-0.0595093
0.5625,0.00732422,-0.105591
0.563,0.00305176,-0.338745
0.5635,-0.00610352,-0.56366
0.564,-0.0164795,-0.529175
0.5645,-0.017395,-0.371704
0.565,0.00732422,-0.172424
0.5655,0.0445557,-0.0872803
0.566,0.0759888,-0.00701904
0.5665,0.10437,0.0308228
0.567,0.0848389,0.078125
0.5675,0.0402832,0.139465
0.568,-0.00488281,0.162354
0.5685,-0.0396729,0.136414
0.569,-0.0656128,0.0741577
0.5695,-0.0808716,0.00579834
0.57,-0.0750732,-0.0320435
0.5705,-0.0509644,-0.0628662
0.571,-0.0299072,-0.0378418
0.5715,-0.0299072,0.0134277
0.572,-0.038147,0.0308228
0.5725,-0.0643921,0.00396729
0.573,-0.0793457,-0.0183105
0.5735,-0.0866699,-0.0109863
0.574,-0.0836182,0.0262451
0.5745,-0.0759888,0.127258
0.575,-0.0680542,0.291138
0.5755,-0.0585938,0.444641
0.576,-0.0469971,0.350647
0.5765,-0.0405884,0.120239
0.577,-0.0363159,0.0628662
0.5775,-0.0286865,0.130615
0.578,-0.0164795,0.0946045
0.5785,-0.00732422,-0.00427246
0.579,0.00335693,-0.0827026
0.5795,0.0128174,-0.102844
0.58,0.0161743,-0.134277
0.5805,0.017395,-0.0619507
0.581,0.0146484,0.00183105
0.5815,0.0100708,0.0769043
0.582,-0.000915527,0.0759888
0.5825,-0.0134277,-0.0411987
0.583,-0.0234985,-0.127869
0.5835,-0.0314331,-0.111694
0.584,-0.0460815,-0.000305176
0.5845,-0.0570679,0.0527954
0.585,-0.0686646,0.0363159
0.5855,-0.0634766,0.0482178
0.586,-0.0415039,0.0912476
0.5865,-0.0161743,0.133667
0.587,0.000610352,0.179443
0.5875,-0.0158691,0.176086
0.588,-0.0112915,-0.0100708
0.5885,-0.000610352,-0.124512
0.589,0.00610352,-0.0842285
0.5895,0.0195313,-0.157776
0.59,0.0115967,-0.224304
0.5905,0.00244141,-0.240784
0.591,0.0128174,-0.132446
0.5915,0.032959,0.0131226
0.592,0.0466919,-0.131531
0.5925,0.0271606,-0.162354
0.593,0.0222778,-0.0335693
0.5935,0.0579834,0.0271606
0.594,0.0775146,0.0213623
0.5945,0.0680542,-0.132141
0.595,0.0436401,-0.371094
0.5955,0.0216675,-0.354919
0.596,0.0134277,-0.142212
0.5965,0.00152588,-0.0299072
0.597,-0.0161743,0.0137329
0.5975,-0.0289917,0.0408936
0.598,-0.0454712,0.0585938
0.5985,-0.0512695,0.0720215
0.599,-0.0512695,0.0827026
0.5995,-0.0323486,0.0878906
0.6,-0.0106812,0.093689
0.6005,0.00152588,0.105591
0.601,0.010376,0.105591
0.6015,0.00396729,0.0952148
0.602,-0.0357056,0.0994873
0.6025,-0.0552368,0.0982666
0.603,-0.0463867,0.0708008
0.6035,-0.0292969,0.0482178
0.604,-0.00549316,0.0442505
0.6045,-0.00183105,0.0601196
0.605,0.00244141,0.0704956
0.6055,0.0180054,0.0396729
0.606,0.0302124,-0.00335693
0.6065,0.0408936,-0.00152588
0.607,0.0585938,0.0161743
0.6075,0.0930786,0.0286865
0.608,0.115356,0.0408936
0.6085,0.11322,-0.100098
0.609,0.122375,0.0390625
0.6095,0.0918579,0.180664
0.61,-0.000305176,0.147095
0.6105,-0.0732422,0.0512695
0.611,-0.098877,0.0143433
0.6115,-0.0823975,0.00579834
0.612,-0.0424194,0.0378418
0.6125,-0.0195313,0.0762939
0.613,-0.0109863,0.0875854
0.6135,-0.0125122,0.164795
0.614,-0.00152588,0.230103
0.6145,-0.000610352,0.25238
0.615,-0.00396729,0.290222
0.6155,-0.00671387,0.325012
0.616,-0.0115967,0.291443
0.6165,-0.0119019,0.155029
0.617,-0.0143433,0.0570679
0.6175,-0.0152588,-0.0640869
0.618,-0.020752,-0.172424
0.6185,-0.000610352,-0.0930786
0.619,0.0708008,-0.0894165
0.6195,0.116272,-0.316772
0.62,0.142822,-0.838928
0.6205,0.176086,-1.02692
0.621,0.19928,-0.756531
0.6215,0.178528,-0.467529
0.622,0.141296,-0.385437
0.6225,0.0912476,-0.385742
0.623,0.0564575,-0.262451
0.6235,0.027771,-0.101318
0.624,-0.000610352,0.00427246
0.6245,-0.0323486,0.06073
0.625,-0.0653076,0.101929
0.6255,-0.0796509,0.149536
0.626,-0.0827026,0.169067
0.6265,-0.0878906,0.124512
0.627,-0.10376,0.11261
0.6275,-0.115356,0.285339
0.628,-0.109558,0.402832
0.6285,-0.0949097,0.326843
0.629,-0.0704956,0.262146
0.6295,-0.0485229,0.238037
0.63,-0.0259399,0.2005
0.6305,-0.0115967,0.0897217
0.631,-0.0125122,0.0747681
0.6315,-0.0134277,0.0805664
0.632,-0.0100708,0.0640869
0.6325,-0.0210571,0.0784302
0.633,-0.0335693,0.0970459
0.6335,-0.045166,0.0701904
0.634,-0.0646973,-0.00274658
0.6345,-0.078125,-0.254211
0.635,-0.0830078,-0.487366
0.6355,-0.0799561,-0.292969
0.636,-0.0500488,0.0332642
0.6365,-0.0494385,0.222778
0.637,-0.0671387,0.215454
0.6375,-0.0878906,0.108032
0.638,-0.0717163,0.0299072
0.6385,-0.0439453,-0.00854492
0.639,-0.06073,0.0170898
0.6395,-0.0848389,0.0424194
0.64,-0.0866699,0.0350952
0.6405,-0.0704956,0.017395
0.641,-0.045166,0.0186157
0.6415,-0.0106812,0.0549316
0.642,0.0128174,0.139465
0.6425,0.0357056,0.188293
0.643,0.0540161,0.160522
0.6435,0.0680542,0.142822
0.644,0.0860596,0.144043
0.6445,0.106201,0.119629
0.645,0.119934,0.0640869
0.6455,0.126648,0.0189209
0.646,0.142822,-0.0866699
0.6465,0.14801,-0.0976563
0.647,0.143127,-0.0247192
0.6475,0.129395,-0.00762939
0.648,0.115356,-0.28717
0.6485,0.0839233,-0.423279
0.649,0.0534058,-0.179443
0.6495,0.0445557,-0.00213623
0.65,0.0375366,-0.0238037
0.6505,0.0201416,-0.175476
0.651,-0.0106812,-0.169678
0.6515,-0.0292969,-0.128784
0.652,-0.017395,-0.165405
0.6525,-0.0177002,-0.245972
0.653,-0.0521851,-0.219421
0.6535,-0.0845337,-0.108032
0.654,-0.0991821,0.0250244
0.6545,-0.0698853,0.0796509
0.655,-0.0326538,0.0817871
0.6555,0.00183105,0.0817871
0.656,0.0341797,0.0762939
0.6565,0.0552368,0.0891113
0.657,0.0701904,0.107422
0.6575,0.0576782,0.107727
0.658,0.0283813,0.0985718
0.6585,-0.00183105,0.0802612
0.659,-0.0198364,0.088501
0.6595,-0.0253296,0.0878906
0.66,-0.0256348,0.0909424
0.6605,-0.000610352,0.10376
0.661,0.0421143,0.119019
0.6615,0.0921631,0.12207
0.662,0.114746,0.0848389
0.6625,0.100403,-0.0311279
0.663,0.0759888,-0.0875854
0.6635,0.0457764,-0.0494385
0.664,0.0149536,-0.0366211
0.6645,-0.0262451,-0.0534058
0.665,-0.057373,0.0125122
0.6655,-0.0637817,0.0354004
0.666,-0.0610352,-0.012207
0.6665,-0.0637817,-0.0524902
0.667,-0.071106,-0.0622559
0.6675,-0.0747681,-0.0289917
0.668,-0.0741577,0.0271606
0.6685,-0.0686646,0.0534058
0.669,-0.0640869,0.0335693
0.6695,-0.0695801,-0.00579834
0.67,-0.0793457,-0.0540161
0.6705,-0.0970459,-0.0918579
0.671,-0.107117,-0.0994873
0.6715,-0.109253,-0.0686646
0.672,-0.085144,-0.0494385
0.6725,-0.0598145,-0.0250244
0.673,-0.0454712,0.0109863
0.6735,-0.050354,0.0332642
0.674,-0.0469971,0.0488281
0.6745,-0.0424194,0.0628662
0.675,-0.0299072,0.0714111
0.6755,-0.0115967,0.03479
0.676,0.00244141,-0.0534058
0.6765,0.0201416,-0.0131226
0.677,0.0390625,0.083313
0.6775,0.0567627,0.126038
0.678,0.0787354,-0.039978
0.6785,0.0881958,-0.088501
0.679,0.0836182,0.020752
0.6795,0.0900269,0.0540161
0.68,0.118103,0.0442505
0.6805,0.125732,0.0354004
0.681,0.0991821,0.0131226
0.6815,0.0540161,-0.0378418
0.682,0.0164795,-0.1297
0.6825,-0.0198364,-0.158081
0.683,-0.0543213,-0.107727
0.6835,-0.0671387,-0.0149536
0.684,-0.0631714,0.0390625
0.6845,-0.0588989,-0.149536
0.685,-0.0570679,-0.0747681
0.6855,-0.0637817,0.292358
0.686,-0.0817871,0.293884
0.6865,-0.0939941,0.135803
0.687,-0.0814819,0.0457764
0.6875,-0.0582886,0.0012207
0.688,-0.0357056,-0.0436401
0.6885,-0.0186157,-0.0366211
0.689,0.0128174,0.0161743
0.6895,0.0662231,-0.0109863
0.69,0.12085,-0.0302124
0.6905,0.152893,-0.0918579
0.691,0.161133,-0.170593
0.6915,0.155029,-0.0643921
0.692,0.140686,0.143127
0.6925,0.105286,0.245667
0.693,0.0704956,0.271912
0.6935,0.0396729,0.230713
0.694,0.0112915,0.178833
0.6945,-0.0149536,0.157166
0.695,-0.0204468,-0.0531006
0.6955,-0.0238037,-0.28717
0.696,-0.020752,-0.628052
0.6965,-0.0177002,-0.713196
0.697,-0.0393677,-0.483398
0.6975,-0.0485229,-0.18219
0.698,-0.020752,0.174866
0.6985,0.00366211,0.2005
0.699,0.00335693,0.0827026
0.6995,-0.0115967,-0.0183105
0.7,-0.0222778,-0.0378418
0.7005,-0.0274658,-0.0418091
0.701,-0.0189209,-0.0357056
0.7015,-0.022583,-0.0115967
0.702,-0.0460815,0.0357056
0.7025,-0.0784302,0.045166
0.703,-0.0952148,0.0509644
0.7035,-0.102844,0.0750732
0.704,-0.108337,0.0823975
0.7045,-0.0973511,0.0646973
0.705,-0.0634766,0.0772095
0.7055,-0.032959,0.115662
0.706,-0.00976563,0.162354
0.7065,0.0192261,0.233459
0.707,0.0338745,0.304871
0.7075,0.0180054,0.348206
0.708,-0.00823975,0.268555
0.7085,-0.00579834,0.214844
0.709,0.020752,0.263367
0.7095,0.0424194,0.224304
0.71,0.0491333,-0.0704956
0.7105,0.0463867,-0.302429
0.711,0.0286865,-0.269165
0.7115,0.032959,-0.20874
0.712,0.0384521,-0.232239
0.7125,0.0204468,-0.269165
0.713,-0.0109863,-0.343018
0.7135,-0.0375366,-0.328369
0.714,-0.0473022,-0.227356
0.7145,-0.0308228,-0.192566
0.715,-0.00823975,-0.192261
0.7155,0.0167847,-0.145264
0.716,0.0460815,-0.0970459
0.7165,0.0717163,-0.0271606
0.717,0.0918579,0.0396729
0.7175,0.132446,0.0631714
0.718,0.17395,0.093689
0.7185,0.179138,0.154724
0.719,0.131531,0.196228
0.7195,0.0509644,0.201721
0.72,-0.0158691,0.201416
0.7205,-0.0567627,0.196533
0.721,-0.0915527,0.117493
0.7215,-0.0994873,-0.112305
0.722,-0.0744629,-0.185242
0.7225,-0.0415039,-0.0344849
0.723,-0.0305176,0.0866699
0.7235,-0.0320435,0.131836
0.724,-0.0326538,0.113525
0.7245,-0.0436401,0.0820923
0.725,-0.0411987,0.0588989
0.7255,-0.0332642,0.0231934
0.726,-0.0213623,0.0256348
0.7265,-0.00427246,-0.0540161
0.727,0.0180054,-0.26123
0.7275,0.0244141,-0.296021
0.728,0.0274658,-0.282593
0.7285,0.038147,-0.271301
0.729,0.0491333,-0.180664
0.7295,0.043335,-0.0183105
0.73,-0.00335693,0.115051
0.7305,-0.0390625,0.26947
0.731,-0.0405884,0.285645
0.7315,-0.0283813,0.213623
0.732,-0.0271606,0.145569
0.7325,-0.0305176,0.0912476
0.733,-0.038147,0.0531006
0.7335,-0.0408936,0.0408936
0.734,-0.0466919,0.03479
0.7345,-0.0671387,0.0219727
0.735,-0.072937,0.0125122
0.7355,-0.0592041,0.000915527
0.736,-0.055542,-0.0109863
0.7365,-0.0613403,0.0137329
0.737,-0.0463867,0.0354004
0.7375,-0.0296021,0.043335
0.738,-0.00305176,0.0653076
0.7385,0.0289917,0.083313
0.739,0.0488281,0.0778198
0.7395,0.0653076,0.0897217
0.74,0.0683594,0.114441
0.7405,0.0552368,0.120544
0.741,0.0473022,0.0588989
0.7415,0.0390625,0.00701904
0.742,0.0158691,-0.039978
0.7425,-0.0164795,-0.100708
0.743,-0.032959,-0.132141
0.7435,-0.0238037,-0.0698853
0.744,-0.000305176,-0.0979614
0.7445,0.0186157,-0.189209
0.745,0.0158691,-0.0534058
0.7455,0.00915527,0.0784302
0.746,0.0213623,0.107727
0.7465,0.0192261,0.106506
0.747,-0.0244141,0.108948
0.7475,-0.0363159,0.110779
0.748,-0.0289917,0.101013
0.7485,-0.00610352,0.0521851
0.749,0.0241089,0.0088501
0.7495,0.0167847,-0.0637817
0.75,0.0134277,-0.133972
0.7505,0.0448608,-0.267334
0.751,0.0769043,-0.447998
0.7515,0.0863647,-0.331421
0.752,0.0701904,-0.0650024
0.7525,0.0375366,0.111389
0.753,0.0201416,0.00213623
0.7535,0.00244141,-0.0537109
0.754,-0.0146484,0.00854492
0.7545,-0.0210571,-0.0445557
0.755,-0.0231934,-0.237122
0.7555,-0.0219727,-0.311584
0.756,-0.0131226,-0.197449
0.7565,-0.010376,-0.0296021
0.757,-0.0115967,-0.0112915
0.7575,-0.0134277,-0.00366211
0.758,-0.0183105,-0.0134277
0.7585,-0.0234985,0.0125122
0.759,-0.0268555,0.0637817
0.7595,-0.0274658,0.0900269
0.76,-0.0280762,0.0576782
0.7605,-0.0427246,0.0366211
0.761,-0.0543213,0.0546265
0.7615,-0.0790405,0.0762939
0.762,-0.0942993,0.050354
0.7625,-0.0811768,0.0012207
0.763,-0.0515747,-0.000915527
0.7635,-0.0268555,0.0378418
0.764,-0.015564,0.124512
0.7645,-0.00213623,0.187073
0.765,0.020752,0.27832
0.7655,0.0363159,0.485535
0.766,0.0473022,0.433044
0.7665,0.0335693,0.0369263
0.767,0.0289917,-0.201721
0.7675,0.0415039,-0.178528
0.768,0.0363159,-0.0314331
0.7685,0.0247192,0.0515747
0.769,0.0170898,0.012207
0.7695,-0.012207,-0.0567627
0.77,-0.000915527,-0.0830078
0.7705,0.0393677,-0.132141
0.771,0.0558472,-0.125732
0.7715,0.0518799,-0.143127
0.772,0.0408936,-0.0808716
0.7725,0.0524902,0.0650024
0.773,0.0494385,0.166016
0.7735,0.0247192,0.192261
0.774,0.00915527,0.189819
0.7745,0.0231934,0.159302
0.775,0.0308228,0.0912476
0.7755,0.0265503,0.0198364
0.776,0.0299072,0.0186157
0.7765,0.0344849,0.0567627
0.777,0.0335693,0.133972
0.7775,0.0280762,0.153198
0.778,0.0231934,-0.00549316
0.7785,0.0250244,-0.213928
0.779,0.0296021,-0.173035
0.7795,0.0137329,-0.170593
0.78,-0.00946045,-0.265198
0.7805,-0.00854492,-0.287476
0.781,0.00183105,-0.106201
0.7815,0.00671387,-0.0360107
0.782,0.0256348,-0.0570679
0.7825,0.0494385,-0.0598145
0.783,0.0646973,-0.134583
0.7835,0.0726318,-0.27832
0.784,0.0646973,-0.376892
0.7845,0.0360107,-0.249023
0.785,-0.00549316,-0.0723267
0.7855,-0.0509644,0.0842285
0.786,-0.0723267,0.161438
0.7865,-0.0900269,0.177002
0.787,-0.109253,0.158691
0.7875,-0.106812,0.131836
0.788,-0.10437,0.191956
0.7885,-0.116577,0.297546
0.789,-0.115967,0.330505
0.7895,-0.121155,0.307007
0.79,-0.116577,0.24353
0.7905,-0.0994873,0.211487
0.791,-0.0830078,0.1297
0.7915,-0.0701904,0.0308228
0.792,-0.0601196,-0.055542
0.7925,-0.0588989,-0.281372
0.793,-0.062561,-0.604248
0.7935,-0.0665283,-0.571594
0.794,-0.0500488,-0.344543
0.7945,-0.00244141,-0.184021
0.795,0.0485229,-0.122375
0.7955,0.0808716,-0.107422
0.796,0.102539,-0.055542
0.7965,0.0982666,0.0125122
0.797,0.072937,0.057373
0.7975,0.071106,0.0854492
0.798,0.065918,0.10376
0.7985,0.0650024,0.133667
0.799,0.0509644,0.183105
0.7995,0.050354,0.222168
0.8,0.0714111,0.224915
0.8005,0.0820923,0.201721
0.801,0.0836182,0.158997
0.8015,0.0537109,0.0991821
0.802,0.0177002,-0.0125122
0.8025,-0.0238037,-0.0396729
0.803,-0.0756836,-0.101318
0.8035,-0.0991821,-0.118103
0.804,-0.0949097,-0.0537109
0.8045,-0.0900269,-0.104675
0.805,-0.071106,-0.320435
0.8055,-0.0210571,-0.284424
0.806,-0.00457764,-0.0289917
0.8065,-0.0109863,0.163879
0.807,-0.00946045,0.310974
0.8075,-0.0131226,0.24353
0.808,-0.0244141,0.0888062
0.8085,-0.0247192,-0.00244141
0.809,-0.00549316,-0.0390625
0.8095,-0.00732422,0.00335693
0.81,0.0012207,0.0790405
0.8105,0.0259399,0.108643
0.811,0.0527954,0.0933838
0.8115,0.0616455,0.038147
0.812,0.0689697,0.0088501
0.8125,0.067749,0.0106812
0.813,0.0634766,0.0100708
0.8135,0.0689697,-0.0195313
0.814,0.0534058,-0.0793457
0.8145,0.0445557,-0.152283
0.815,0.0311279,-0.137329
0.8155,0.0259399,-0.067749
0.816,0.0177002,-0.0259399
0.8165,0.000610352,-0.0112915
0.817,-0.0292969,-0.0332642
0.8175,-0.0469971,-0.0357056
0.818,-0.0469971,0.00946045
0.8185,-0.0341797,0.0650024
0.819,-0.0250244,0.0881958
0.8195,-0.0210571,0.145569
0.82,-0.0283813,0.220337
0.8205,-0.0576782,0.240479
0.821,-0.0762939,0.235596
0.8215,-0.0799561,0.225525
0.822,-0.0778198,0.177307
0.8225,-0.050354,0.162659
0.823,-0.0366211,0.241699
0.8235,-0.0320435,0.193481
0.824,-0.0265503,0.0131226
0.8245,-0.0241089,-0.17395
0.825,-0.00396729,-0.448303
0.8255,0.0183105,-0.59906
0.826,0.0332642,-0.484314
0.8265,0.0326538,-0.387878
0.827,0.0442505,-0.0534058
0.8275,0.0662231,-0.0274658
0.828,0.0848389,-0.163574
0.8285,0.0927734,-0.1828
0.829,0.0927734,-0.162048
0.8295,0.0756836,-0.213928
0.83,0.0567627,-0.0942993
0.8305,0.0424194,0.043335
0.831,0.0143433,0.100403
0.8315,0.0115967,0.0698853
0.832,0.0149536,0.0579834
0.8325,0.0012207,0.0787354
0.833,0.0012207,0.0753784
0.8335,0.0177002,0.0415039
0.834,0.0201416,0.045166
0.8345,0.00976563,0.101624
0.835,0.000915527,0.142822
0.8355,-0.00366211,0.163269
0.836,-0.00640869,0.160522
0.8365,-0.00640869,0.137634
0.837,-0.00488281,0.101013
0.8375,-0.00152588,0.0894165
0.838,0.00579834,0.110779
0.8385,0.0149536,0.122986
0.839,0.00762939,0.09552
0.8395,-0.0183105,-0.00457764
0.84,-0.0442505,-0.152283
0.8405,-0.0561523,-0.164795
0.841,-0.06073,-0.083313
0.8415,-0.0811768,-0.176697
0.842,-0.0906372,-0.148621
0.8425,-0.0756836,-0.0241089
0.843,-0.0531006,0.00976563
0.8435,-0.0259399,0.0900269
0.844,-0.027771,0.200806
0.8445,-0.0454712,0.229187
0.845,-0.0469971,0.230713
0.8455,-0.039978,0.198669
0.846,-0.0280762,0.177307
0.8465,-0.0213623,0.152283
0.847,-0.0140381,0.102844
0.8475,-0.00518799,0.0549316
0.848,-0.00488281,-0.0720215
0.8485,-0.00762939,-0.327454
0.849,-0.00183105,-0.582886
0.8495,0.012207,-0.423279
0.85,0.0140381,-0.27832
0.8505,-0.00854492,-0.202332
0.851,-0.0338745,-0.196228
0.8515,-0.0247192,-0.155334
0.852,-0.0012207,-0.108948
0.8525,0.0445557,-0.00793457
0.853,0.0790405,0.0872803
0.8535,0.101013,0.0543213
0.854,0.0970459,-0.160522
0.8545,0.0906372,-0.253296
0.855,0.0653076,-0.133667
0.8555,0.010376,0.0796509
0.856,-0.0201416,0.314636
0.8565,-0.00793457,0.287781
0.857,0.00549316,0.187073
0.8575,0.0140381,0.166626
0.858,0.0268555,0.105286
0.8585,0.0485229,0.0634766
0.859,0.0793457,0.085144
0.8595,0.103455,0.0817871
0.86,0.093689,0.0460815
0.8605,0.0775146,0.00854492
0.861,0.0561523,-0.0378418
0.8615,0.0326538,-0.0363159
0.862,0.0106812,0.00976563
0.8625,-0.00488281,0.0323486
0.863,-0.0149536,0.0439453
0.8635,-0.0289917,0.062561
0.864,-0.0415039,0.0717163
0.8645,-0.0442505,0.0714111
0.865,-0.0378418,0.0704956
0.8655,-0.0292969,0.0592041
0.866,-0.0311279,0.0567627
0.8665,-0.0366211,0.0372314
0.867,-0.0610352,-0.126953
0.8675,-0.0759888,-0.149536
0.868,-0.0558472,-0.0335693
0.8685,-0.020752,-0.0247192
0.869,0.0,-0.0500488
0.8695,0.00549316,0.0604248
0.87,0.00396729,0.108948
0.8705,0.000915527,0.0964355
0.871,-0.000305176,0.090332
0.8715,-0.020752,0.0814819
0.872,-0.0466919,0.0814819
0.8725,-0.0680542,-0.00274658
0.873,-0.0735474,-0.173035
0.8735,-0.0662231,-0.104675
0.874,-0.0561523,-0.09552
0.8745,-0.0305176,-0.211792
0.875,-0.0192261,-0.188599
0.8755,-0.0231934,-0.0875854
0.876,-0.000305176,-0.0320435
0.8765,0.0463867,-0.0570679
0.877,0.0830078,-0.0808716
0.8775,0.0961304,-0.0671387
0.878,0.0765991,-0.0219727
0.8785,0.0524902,0.0137329
0.879,0.0344849,0.0201416
0.8795,0.0250244,0.0265503
0.88,0.0253296,0.0552368
0.8805,-0.0088501,0.0750732
0.881,-0.0408936,0.0848389
0.8815,-0.0656128,0.0286865
0.882,-0.062561,0.0784302
0.8825,-0.0524902,0.0878906
0.883,-0.039978,-0.0415039
0.8835,-0.0250244,-0.0811768
0.884,-0.0317383,0.0137329
0.8845,-0.0286865,0.0866699
0.885,0.00274658,0.10498
0.8855,0.0296021,0.134277
0.886,0.0189209,0.0878906
0.8865,0.00152588,0.0234985
0.887,0.0143433,0.0100708
0.8875,-0.00244141,0.0332642
0.888,-0.0234985,0.0820923
0.8885,-0.0317383,0.0823975
0.889,-0.0592041,0.0500488
0.8895,-0.0552368,0.0527954
0.89,-0.00274658,0.0524902
0.8905,0.0411987,0.0189209
0.891,0.0616455,-0.0195313
0.8915,0.0656128,-0.0222778
0.892,0.0552368,-0.0460815
0.8925,0.0360107,-0.123901
0.893,0.015564,-0.151672
0.8935,0.00823975,-0.0445557
0.894,0.0164795,0.0183105
0.8945,0.0164795,0.0119019
0.895,-0.0128174,0.00335693
0.8955,-0.0259399,0.0738525
0.896,-0.0244141,0.0949097
0.8965,-0.0177002,-0.101318
0.897,-0.0140381,-0.254822
0.8975,-0.0128174,-0.103455
0.898,-0.0134277,-0.0396729
0.8985,-0.0180054,-0.0265503
0.899,-0.0183105,-0.0296021
0.8995,-0.0311279,-0.00518799
0.9,-0.0387573,0.0125122
0.9005,-0.0180054,-0.111694
0.901,-0.00213623,-0.235291
0.9015,0.00793457,-0.235291
0.902,0.0125122,-0.0784302
0.9025,0.0250244,0.0509644
0.903,0.0494385,0.0344849
0.9035,0.0628662,-0.00396729
0.904,0.0622559,0.078125
0.9045,0.055542,0.150146
0.905,0.0585938,0.171814
0.9055,0.0396729,0.159607
0.906,-0.00640869,0.150757
0.9065,-0.0411987,0.170288
0.907,-0.0765991,0.188293
0.9075,-0.103455,0.177307
0.908,-0.116882,0.13916
0.9085,-0.112,0.090332
0.909,-0.067749,-0.0946045
0.9095,-0.0344849,-0.215149
0.91,-0.00549316,-0.249329
0.9105,0.0268555,-0.252075
0.911,0.085144,-0.193481
0.9115,0.124817,-0.0808716
0.912,0.116882,-0.0790405
0.9125,0.0949097,-0.0985718
0.913,0.0622559,-0.0210571
0.9135,0.0326538,0.00823975
0.914,0.0186157,-0.0262451
0.9145,0.0198364,-0.0396729
0.915,0.0350952,-0.0198364
0.9155,0.0567627,0.0253296
0.916,0.0674438,0.0680542
0.9165,0.0540161,0.0930786
0.917,0.0201416,0.104675
0.9175,0.00183105,0.1297
0.918,-0.00183105,0.148926
0.9185,-0.0143433,0.107117
0.919,-0.0320435,-0.0299072
0.9195,-0.0375366,0.0436401
0.92,-0.0570679,0.105896
0.9205,-0.0753784,0.109558
0.921,-0.0820923,0.109863
0.9215,-0.0598145,0.0585938
0.922,-0.0302124,0.0143433
0.9225,-0.0131226,0.015564
0.923,-0.0131226,0.0814819
0.9235,-0.00518799,0.0909424
0.924,0.0344849,-0.222778
0.9245,0.088501,-0.499268
0.925,0.12146,-0.49408
0.9255,0.128479,-0.252075
0.926,0.121155,0.0152588
0.9265,0.0994873,0.107117
0.927,0.0668335,0.0881958
0.9275,0.0180054,0.0726318
0.928,-0.022583,0.0280762
0.9285,-0.0567627,0.0442505
0.929,-0.102844,0.10437
0.9295,-0.137024,0.13031
0.93,-0.134277,0.153503
0.9305,-0.108337,0.14801
0.931,-0.112,0.0463867
0.9315,-0.14801,-0.0427246
0.932,-0.15625,-0.0909424
0.9325,-0.117798,-0.0918579
0.933,-0.0756836,-0.119324
0.9335,-0.0540161,-0.100403
0.934,-0.0384521,-0.0759888
0.9345,-0.0341797,-0.0643921
0.935,-0.0531006,-0.131836
0.9355,-0.0683594,-0.223999
0.936,-0.0793457,-0.162354
0.9365,-0.0793457,-0.0366211
0.937,-0.0671387,0.0604248
0.9375,-0.0543213,0.137634
0.938,-0.0344849,0.142212
0.9385,-0.00396729,0.137329
0.939,0.0488281,0.101929
0.9395,0.0982666,0.0189209
0.94,0.145569,-0.072937
0.9405,0.194702,0.0756836
0.941,0.217896,0.183411
0.9415,0.201111,0.142212
0.942,0.161743,0.117188
0.9425,0.124512,0.155029
0.943,0.0964355,0.177002
0.9435,0.0769043,0.168457
0.944,0.0613403,0.1651
0.9445,0.0640869,0.144653
0.945,0.0689697,0.115662
0.9455,0.0579834,0.105286
0.946,0.0326538,0.109253
0.9465,-0.0112915,0.102539
0.947,-0.0552368,0.067749
0.9475,-0.0811768,-0.107422
0.948,-0.0778198,-0.258484
0.9485,-0.0598145,-0.106812
0.949,-0.0500488,-0.158386
0.9495,-0.0305176,-0.247498
0.95,-0.0167847,-0.0982666
0.9505,-0.0195313,0.0744629
0.951,-0.0286865,0.129089
0.9515,-0.0384521,0.116577
0.952,-0.0476074,-0.0405884
0.9525,-0.0585938,-0.253601
0.953,-0.0680542,-0.166931
0.9535,-0.0762939,-0.164795
0.954,-0.065918,-0.278931
0.9545,-0.0463867,-0.310669
0.955,-0.0622559,-0.230103
0.9555,-0.0689697,-0.144043
0.956,-0.0482178,-0.072937
0.9565,-0.0228882,-0.0323486
0.957,-0.0012207,-0.0540161
0.9575,-0.0134277,-0.0469971
0.958,-0.0363159,-0.0219727
0.9585,-0.0280762,-0.00244141
0.959,-0.00518799,0.0732422
0.9595,0.00671387,0.133057
0.96,0.0134277,0.115662
0.9605,0.00976563,0.065918
0.961,0.0228882,-0.0442505
0.9615,0.0280762,-0.0134277
0.962,0.017395,0.113831
0.9625,0.0308228,0.166626
0.963,0.065918,0.172424
0.9635,0.0970459,0.124817
0.964,0.0994873,-0.0436401
0.9645,0.0921631,0.0430298
0.965,0.0982666,0.206909
0.9655,0.0979614,0.252991
0.966,0.0393677,0.275269
0.9665,-0.0112915,0.154114
0.967,-0.0259399,-0.0164795
0.9675,-0.0244141,-0.10498
0.968,-0.0259399,-0.167847
0.9685,-0.0335693,-0.204163
0.969,-0.0390625,-0.177002
0.9695,-0.0415039,-0.217285
0.97,-0.00915527,-0.205688
0.9705,0.0296021,-0.144653
0.971,0.0515747,-0.057373
0.9715,0.0735474,0.0186157
0.972,0.0946045,0.0930786
0.9725,0.0970459,0.100403
0.973,0.0891113,0.0695801
0.9735,0.0799561,0.0454712
0.974,0.0616455,-0.0424194
0.9745,0.0338745,-0.0820923
0.975,0.00213623,-0.0192261
0.9755,-0.00579834,0.0576782
0.976,-0.00427246,0.0985718
0.9765,0.00396729,0.118103
0.977,-0.00793457,0.112
0.9775,-0.0363159,0.131226
0.978,-0.0820923,0.166321
0.9785,-0.107117,0.175476
0.979,-0.0994873,0.152588
0.9795,-0.0744629,0.126953
0.98,-0.0439453,0.116272
0.9805,-0.0256348,0.167236
0.981,-0.0134277,0.203857
0.9815,-0.0210571,0.0994873
0.982,-0.0418091,-0.067749
0.9825,-0.0708008,-0.28717
0.983,-0.09552,-0.630188
0.9835,-0.107727,-0.749207
0.984,-0.0994873,-0.503235
0.9845,-0.0799561,-0.221863
0.985,-0.0714111,-0.0839233
0.9855,-0.0405884,-0.0238037
0.986,-0.0100708,-0.00518799
0.9865,0.00488281,0.0088501
0.987,0.0204468,0.0299072
0.9875,0.0689697,0.0549316
0.988,0.115051,0.0897217
0.9885,0.129089,0.111694
0.989,0.109863,0.124817
0.9895,0.0726318,0.133667
0.99,0.0299072,0.136108
0.9905,-0.00701904,0.142822
0.991,-0.0265503,0.145874
0.9915,-0.0204468,0.137634
0.992,-0.00946045,0.152283
0.9925,0.00335693,0.148926
0.993,0.00610352,0.0997925
0.9935,0.00427246,0.0762939
0.994,-0.0106812,-0.0579834
0.9945,-0.0283813,-0.135193
0.995,-0.0418091,-0.00762939
0.9955,-0.0494385,0.0537109
0.996,-0.0430298,0.032959
0.9965,-0.0344849,-0.00213623
0.997,-0.0259399,-0.00549316
0.9975,-0.0256348,-0.0311279
0.998,-0.0265503,-0.0350952
0.9985,-0.0341797,0.0128174
0.999,-0.0241089,0.0204468
0.9995,-0.00274658,-0.0350952
1.0,-0.000610352,-0.122681
1.0005,-0.0231934,-0.155029
1.001,-0.0137329,-0.146179
1.0015,0.0109863,-0.108032
1.002,0.0372314,-0.0628662
1.0025,0.0543213,-0.0616455
1.003,0.0643921,-0.0628662
1.0035,0.0717163,-0.0537109
1.004,0.0753784,-0.057373
1.0045,0.0619507,-0.0491333
1.005,0.0390625,-0.0259399
1.0055,0.0128174,-0.0119019
1.006,-0.0164795,-0.00366211
1.0065,-0.0344849,-0.00457764
1.007,-0.0488281,0.0268555
1.0075,-0.0552368,0.15686
1.008,-0.0692749,0.264282
1.0085,-0.0860596,0.154114
1.009,-0.0759888,0.0546265
1.0095,-0.0537109,0.0262451
1.01,-0.0012207,0.0302124
1.0105,0.0546265,0.0460815
1.011,0.083313,0.0497437
1.0115,0.072937,0.0463867
1.012,0.06073,0.0497437
1.0125,0.0534058,0.0588989
1.013,0.0524902,0.0787354
1.0135,0.057373,0.0888062
1.014,0.0543213,0.0735474
1.0145,0.0476074,0.00518799
1.015,0.0335693,-0.0421143
1.0155,0.0177002,-0.0866699
1.016,0.020752,-0.0775146
1.0165,0.0338745,-0.0326538
1.017,0.0466919,-0.0274658
1.0175,0.0552368,-0.071106
1.018,0.0723267,-0.0332642
1.0185,0.0817871,0.130615
1.019,0.071106,0.236816
1.0195,0.0592041,0.169373
1.02,0.0442505,0.114441
1.0205,0.0167847,0.157776
1.021,-0.0222778,0.233765
1.0215,-0.0604248,0.279236
1.022,-0.0820923,0.232849
1.0225,-0.100708,0.147095
1.023,-0.101318,-0.0259399
1.0235,-0.103455,-0.202942
1.024,-0.143738,-0.39856
1.0245,-0.180359,-0.377197
1.025,-0.193481,-0.339661
1.0255,-0.187378,-0.37384
1.026,-0.174561,-0.334167
1.0265,-0.150757,-0.395813
1.027,-0.124207,-0.621033
1.0275,-0.0769043,-0.571899
1.028,0.0189209,-0.256958
1.0285,0.128784,0.0369263
1.029,0.174255,0.227966
1.0295,0.17334,0.270996
1.03,0.179138,0.248718
1.0305,0.19104,0.206299
1.031,0.157471,0.187378
1.0315,0.0942993,0.201416
1.032,0.0344849,0.195923
1.0325,-0.0131226,0.1828
1.033,-0.0497437,0.22583
1.0335,-0.0805664,0.206299
1.034,-0.104065,0.00701904
1.0345,-0.0897217,0.0546265
1.035,-0.0585938,0.113525
1.0355,-0.0469971,0.101318
1.036,-0.0482178,0.161133
1.0365,-0.0378418,0.188599
1.037,-0.00213623,0.0320435
1.0375,0.000610352,-0.135803
1.038,-0.0299072,-0.0466919
1.0385,-0.0402832,-0.0897217
1.039,-0.0241089,-0.199585
1.0395,0.00610352,-0.241089
1.04,0.0411987,-0.356445
1.0405,0.0695801,-0.300598
1.041,0.078125,-0.23407
1.0415,0.0805664,-0.238342
1.042,0.0570679,-0.093689
1.0425,0.0534058,0.0442505
1.043,0.0515747,0.0942993
1.0435,0.0476074,0.0949097
1.044,0.0457764,0.0698853
1.0445,0.0473022,0.00305176
1.045,0.0494385,-0.032959
1.0455,0.0619507,0.0234985
1.046,0.0476074,0.0906372
1.0465,0.0494385,0.12146
1.047,0.0628662,0.11322
1.0475,0.0631714,0.108948
1.048,0.0546265,0.105591
1.0485,0.043335,0.105591
1.049,0.03479,0.105286
1.0495,0.0119019,0.0924683
1.05,-0.0198364,0.102539
1.0505,-0.0418091,0.0817871
1.051,-0.0494385,0.0366211
1.0515,-0.0509644,-0.0177002
1.052,-0.0546265,-0.0378418
1.0525,-0.06073,-0.0653076
1.053,-0.0802612,-0.017395
1.0535,-0.0967407,0.0927734
1.054,-0.111084,0.127869
1.0545,-0.120239,0.0204468
1.055,-0.108643,-0.286255
1.0555,-0.0842285,-0.407104
1.056,-0.0726318,-0.166016
1.0565,-0.0637817,0.0567627
1.057,-0.0515747,0.118103
1.0575,-0.0500488,0.0268555
1.058,-0.0564575,-0.0631714
1.0585,-0.0515747,-0.0466919
1.059,-0.0234985,0.010376
1.0595,0.000915527,0.0418091
1.06,0.0234985,0.06073
1.0605,0.0408936,0.0552368
1.061,0.0561523,0.0744629
1.0615,0.0442505,0.085144
1.062,0.032959,0.0961304
1.0625,0.027771,0.093689
1.063,0.0402832,0.0448608
1.0635,0.0570679,0.0222778
1.064,0.0460815,0.012207
1.0645,0.0253296,0.0198364
1.065,0.0100708,0.0296021
1.0655,-0.0125122,0.0289917
1.066,-0.0366211,-0.0500488
1.0665,-0.0476074,-0.172424
1.067,-0.0366211,-0.188904
1.0675,-0.0115967,-0.0869751
1.068,0.00549316,0.0308228
1.0685,0.0106812,0.181885
1.069,0.0296021,0.0863647
1.0695,0.050354,-0.0408936
1.07,0.0622559,-0.0454712
1.0705,0.0799561,0.00854492
1.071,0.104065,0.0296021
1.0715,0.114746,-0.0137329
1.072,0.136414,-0.0344849
1.0725,0.158386,-0.0369263
1.073,0.142517,-0.0457764
1.0735,0.103149,-0.0558472
1.074,0.0588989,-0.0537109
1.0745,-0.0170898,0.00152588
1.075,-0.0802612,0.0698853
1.0755,-0.0717163,0.118408
1.076,-0.0418091,0.126343
1.0765,-0.0204468,0.118408
1.077,-0.00671387,0.0973511
1.0775,0.000610352,0.108337
1.078,0.010376,0.157776
1.0785,0.00366211,0.186768
1.079,-0.00762939,0.144958
1.0795,-0.0170898,0.125732
1.08,-0.0280762,0.0939941
1.0805,-0.0549316,0.0241089
1.081,-0.0787354,-0.126343
1.0815,-0.0979614,-0.17334
1.082,-0.112305,0.0161743
1.0825,-0.124817,0.116577
1.083,-0.119324,-0.0881958
1.0835,-0.105896,-0.365295
1.084,-0.0790405,-0.635986
1.0845,-0.0509644,-0.482178
1.085,-0.0360107,-0.202637
1.0855,-0.0222778,-0.162659
1.086,0.00274658,-0.144958
1.0865,0.0299072,-0.0546265
1.087,0.0320435,-0.00274658
1.0875,0.0115967,0.0238037
1.088,0.00183105,0.0558472
1.0885,-0.00305176,0.0918579
1.089,-0.0012207,0.106201
1.0895,0.00823975,0.123901
1.09,0.00762939,0.137329
1.0905,0.00610352,0.124817
1.091,-0.00213623,0.105896
1.0915,-0.00274658,0.0946045
1.092,-0.00183105,0.0881958
1.0925,-0.00579834,0.0558472
1.093,0.000610352,0.00488281
1.0935,0.0158691,-0.0637817
1.094,0.0305176,-0.0488281
1.0945,0.0512695,-0.0415039
1.095,0.0753784,-0.161743
1.0955,0.0875854,-0.177307
1.096,0.0823975,-0.0485229
1.0965,0.0634766,0.057373
1.097,0.0390625,0.12207
1.0975,0.0271606,0.135803
1.098,0.0222778,0.120544
1.0985,-0.00457764,0.117188
1.099,-0.032959,0.0942993
1.0995,-0.0540161,0.045166
1.1,-0.0732422,0.0134277
1.1005,-0.0759888,0.00457764
1.101,-0.0717163,0.0537109
1.1015,-0.0405884,0.0811768
1.102,0.00213623,0.0222778
1.1025,0.0384521,-0.0393677
1.103,0.0567627,-0.0723267
1.1035,0.0653076,-0.0643921
1.104,0.0613403,-0.0186157
1.1045,0.0460815,0.0543213
1.105,0.0161743,0.0839233
1.1055,-0.00549316,0.0848389
1.106,-0.0125122,0.0738525
1.1065,-0.0109863,0.0604248
1.107,-0.00183105,0.06073
1.1075,0.0180054,0.0698853
1.108,0.0335693,0.0991821
1.1085,0.0415039,0.103455
1.109,0.0448608,0.128784
1.1095,0.0640869,0.123291
1.11,0.0720215,0.0784302
1.1105,0.0723267,0.0308228
1.111,0.0531006,0.0338745
1.1115,0.0161743,0.078125
1.112,-0.020752,0.0653076
1.1125,-0.055542,0.153809
1.113,-0.0991821,0.187073
1.1135,-0.148621,0.045166
1.114,-0.175171,-0.256958
1.1145,-0.169373,-0.467529
1.115,-0.136414,-0.520935
1.1155,-0.0949097,-0.545654
1.116,-0.0613403,-0.536194
1.1165,-0.0311279,-0.395203
1.117,0.0088501,-0.194702
1.1175,0.0323486,-0.0662231
1.118,0.0335693,0.0332642
1.1185,0.0271606,0.153503
1.119,0.0170898,0.0350952
1.1195,0.00518799,-0.250244
1.12,-0.0012207,-0.228577
1.1205,-0.0012207,-0.0662231
1.121,-0.00915527,-0.0595093
1.1215,-0.0100708,0.0131226
1.122,-0.00457764,0.113525
1.1225,0.0454712,0.108032
1.123,0.0680542,0.0665283
1.1235,0.0509644,-0.00183105
1.124,0.055542,0.010376
1.1245,0.0747681,0.0820923
1.125,0.0967407,0.106201
1.1255,0.114441,0.118713
1.126,0.0909424,0.13031
1.1265,0.0421143,0.142822
1.127,-0.00732422,0.16449
1.1275,-0.0265503,0.188293
1.128,-0.012207,0.185242
1.1285,-0.000915527,0.249939
1.129,-0.00793457,0.25238
1.1295,-0.00152588,0.169678
1.13,0.0314331,0.0628662
1.1305,0.0643921,-0.164185
1.131,0.0784302,-0.233459
1.1315,0.0521851,-0.0338745
1.132,0.0109863,0.126648
1.1325,-0.0222778,0.017395
1.133,-0.043335,-0.0918579
1.1335,-0.0527954,-0.0323486
1.134,-0.0628662,-0.0216675
1.1345,-0.0683594,-0.050354
1.135,-0.067749,-0.0756836
1.1355,-0.0570679,-0.0668335
1.136,-0.0454712,0.0314331
1.1365,-0.039978,0.0918579
1.137,-0.0372314,0.112
1.1375,-0.0305176,0.121765
1.138,-0.038147,0.1297
1.1385,-0.0512695,0.088501
1.139,-0.0579834,0.0598145
1.1395,-0.0570679,0.0918579
1.14,-0.0430298,0.10437
1.1405,-0.0360107,0.0894165
1.141,-0.0405884,0.0363159
1.1415,-0.0344849,0.0473022
1.142,-0.0271606,0.106201
1.1425,-0.0210571,-0.139771
1.143,-0.0247192,-0.432129
1.1435,-0.0241089,-0.296326
1.144,-0.0161743,-0.0906372
1.1445,-0.00762939,0.022583
1.145,0.00396729,0.0915527
1.1455,0.0134277,0.0814819
1.146,0.0350952,0.0531006
1.1465,0.050354,0.0283813
1.147,0.0567627,-0.0784302
1.1475,0.0622559,-0.15625
1.148,0.0680542,-0.159302
1.1485,0.0601196,-0.10498
1.149,0.045166,-0.0509644
1.1495,0.0384521,0.00549316
1.15,0.0320435,0.0411987
1.1505,0.0244141,0.045166
1.151,0.0204468,0.015564
1.1515,0.00823975,-0.022583
1.152,-0.0128174,-0.0598145
1.1525,-0.0241089,0.0283813
1.153,-0.0274658,0.0534058
1.1535,-0.0213623,0.0524902
1.154,-0.00793457,0.0500488
1.1545,0.0134277,0.0613403
1.155,0.00579834,0.071106
1.1555,-0.00915527,0.0457764
1.156,-0.0109863,0.0527954
1.1565,0.000915527,0.101013
1.157,0.0387573,0.0912476
1.1575,0.0726318,-0.050354
1.158,0.078125,-0.240173
1.1585,0.0592041,-0.420837
1.159,0.0512695,-0.39917
1.1595,0.0344849,-0.162659
1.16,-0.0012207,0.00976563
1.1605,-0.0402832,0.0564575
1.161,-0.0564575,0.0698853
1.1615,-0.0463867,0.119629
1.162,-0.0418091,0.139771
1.1625,-0.038147,0.144348
1.163,-0.0296021,0.145874
1.1635,-0.0134277,0.132446
1.164,0.0143433,0.117493
1.1645,0.0314331,0.103149
1.165,0.0106812,0.0848389
1.1655,-0.000915527,0.0720215
1.166,-0.015564,0.0598145
1.1665,-0.0350952,0.0354004
1.167,-0.0265503,0.0210571
1.1675,-0.0231934,0.0228882
1.168,-0.0158691,0.0115967
1.1685,0.00610352,0.015564
1.169,0.0512695,-0.0317383
1.1695,0.0622559,-0.0479126
1.17,0.0628662,-0.00823975
1.1705,0.0915527,0.015564
1.171,0.118408,-0.0570679
1.1715,0.129395,-0.0213623
1.172,0.135498,0.0280762
1.1725,0.100403,0.0457764
1.173,0.0308228,-0.00305176
1.1735,-0.0244141,-0.265503
1.174,-0.0537109,-0.46051
1.1745,-0.0598145,-0.429077
1.175,-0.062561,-0.237732
1.1755,-0.0817871,-0.0924683
1.176,-0.109558,-0.0244141
1.1765,-0.116577,-0.0134277
1.177,-0.11322,0.0112915
1.1775,-0.119019,0.0354004
1.178,-0.128479,0.0735474
1.1785,-0.106506,0.10437
1.179,-0.0741577,0.141296
1.1795,-0.000305176,0.149231
1.18,0.0692749,0.135803
1.1805,0.0973511,0.09552
1.181,0.104675,0.0732422
1.1815,0.088501,0.0802612
1.182,0.0714111,0.126038
1.1825,0.050354,0.171814
1.183,0.0292969,0.0897217
1.1835,0.0128174,0.00732422
1.184,0.00152588,0.00488281
1.1845,-0.00152588,0.0372314
1.185,-0.00701904,0.0747681
1.1855,-0.0335693,0.0891113
1.186,-0.0588989,0.13092
1.1865,-0.0628662,0.165405
1.187,-0.0701904,0.180664
1.1875,-0.0888062,0.0839233
1.188,-0.104065,-0.131531
1.1885,-0.0939941,-0.255737
1.189,-0.0747681,-0.321655
1.1895,-0.0518799,-0.239563
1.19,-0.0241089,-0.162964
1.1905,-0.0140381,-0.0732422
1.191,0.0012207,0.0790405
1.1915,0.0183105,0.262756
1.192,0.0350952,0.236511
1.1925,0.0570679,0.0878906
1.193,0.0823975,-0.0238037
1.1935,0.0796509,-0.083313
1.194,0.043335,-0.0695801
1.1945,0.0228882,0.0140381
1.195,0.0247192,0.0500488
1.1955,0.0408936,0.0100708
1.196,0.0601196,-0.0805664
1.1965,0.0808716,-0.184631
1.197,0.0949097,-0.333252
1.1975,0.0735474,-0.453491
1.198,0.012207,-0.282288
1.1985,-0.0375366,-0.0640869
1.199,-0.0613403,0.00732422
1.1995,-0.0842285,0.0320435
1.2,-0.108032,0.0585938
1.2005,-0.117188,0.100708
1.201,-0.0878906,0.10498
1.2015,-0.03479,0.130615
1.202,-0.010376,0.176086
1.2025,0.00488281,0.206299
1.203,0.0485229,0.223694
1.2035,0.090332,0.22644
1.204,0.111694,0.0479126
1.2045,0.108948,-0.0799561
1.205,0.106201,-0.0259399
1.2055,0.0921631,0.00335693
1.206,0.0588989,-0.0500488
1.2065,0.0466919,-0.138855
1.207,0.0479126,-0.186462
1.2075,0.0344849,-0.188599
1.208,0.0183105,-0.157166
1.2085,0.00854492,-0.0723267
1.209,0.00640869,-0.0570679
1.2095,0.00762939,-0.0717163
1.21,0.00671387,-0.0897217
1.2105,0.0088501,-0.0354004
1.211,-0.0106812,0.00946045
1.2115,-0.0665283,0.0375366
1.212,-0.108643,0.0967407
1.2125,-0.128479,0.122681
1.213,-0.13855,0.110779
1.2135,-0.128174,0.0906372
1.214,-0.10437,0.0735474
1.2145,-0.0906372,0.0640869
1.215,-0.0769043,0.0604248
1.2155,-0.0424194,0.0540161
1.216,-0.0289917,0.0488281
1.2165,-0.0250244,0.0445557
1.217,-0.0280762,0.0424194
1.2175,-0.0335693,0.0405884
1.218,-0.0268555,0.0393677
1.2185,0.0012207,0.0344849
1.219,0.0228882,0.0274658
1.2195,0.0408936,0.0158691
1.22,0.0579834,0.00488281
1.2205,0.0521851,0.00457764
1.221,0.0436401,0.00793457
1.2215,0.0402832,0.0106812
1.222,0.0363159,0.0158691
1.2225,0.0292969,0.0146484
1.223,0.0302124,0.00152588
1.2235,0.0439453,0.00152588
1.224,0.0497437,0.00610352
1.2245,0.0482178,-0.0012207
1.225,0.0424194,-0.0112915
1.2255,0.0320435,-0.020752
1.226,0.0177002,-0.0210571
1.2265,0.00366211,0.00335693
1.227,-0.0131226,0.0161743
1.2275,-0.0201416,-0.0186157
1.228,-0.0292969,-0.0344849
1.2285,-0.0683594,-0.0299072
1.229,-0.110474,0.0164795
1.2295,-0.108337,0.0448608
1.23,-0.0775146,0.03479
1.2305,-0.0305176,0.0131226
1.231,0.00946045,0.00640869
1.2315,0.0247192,0.015564
1.232,0.0662231,0.0390625
1.2325,0.105286,0.057373
1.233,0.109558,0.0216675
1.2335,0.0872803,-0.0701904
1.234,0.0479126,-0.0665283
1.2345,0.0302124,-0.140381
1.235,0.0183105,-0.202026
1.2355,0.00854492,-0.152893
1.236,-0.00152588,-0.0686646
1.2365,-0.00579834,-0.0323486
1.237,-0.0268555,-0.00366211
1.2375,-0.0588989,0.0332642
1.238,-0.0634766,0.0491333
1.2385,-0.0296021,0.0701904
1.239,-0.00640869,0.0576782
1.2395,-0.00671387,-0.022583
1.24,-0.00244141,-0.0228882
1.2405,-0.000610352,0.0143433
1.241,-0.00793457,0.0518799
1.2415,-0.0354004,0.111694
1.242,-0.0683594,0.14679
1.2425,-0.0915527,0.148621
1.243,-0.0924683,0.135193
1.2435,-0.0747681,0.136719
1.244,-0.0314331,0.0939941
1.2445,0.0265503,0.101624
1.245,0.0662231,0.180969
1.2455,0.0732422,0.267029
1.246,0.0708008,0.338745
1.2465,0.0643921,0.237732
1.247,0.0598145,-0.0088501
1.2475,0.0653076,-0.258789
1.248,0.0741577,-0.464172
1.2485,0.0952148,-0.676575
1.249,0.100098,-0.488892
1.2495,0.0848389,-0.291748
1.25,0.067749,-0.301514
1.2505,0.0582886,-0.155334
1.251,0.0463867,-0.038147
1.2515,0.0216675,-0.0897217
1.252,0.0195313,-0.0765991
1.2525,0.0109863,-0.0210571
1.253,-0.0280762,0.0308228
1.2535,-0.0769043,0.0564575
1.254,-0.112305,0.0762939
1.2545,-0.118713,0.12207
1.255,-0.0949097,0.168152
1.2555,-0.0601196,0.179749
1.256,-0.0241089,0.090332
1.2565,0.00793457,-0.285645
1.257,0.0497437,-0.380554
1.2575,0.0790405,-0.135498
1.258,0.0823975,0.027771
1.2585,0.0512695,0.0747681
1.259,0.0183105,0.0643921
1.2595,-0.0195313,0.00701904
1.26,-0.0808716,-0.0326538
1.2605,-0.108337,-0.172729
1.261,-0.107727,-0.336609
1.2615,-0.100098,-0.174866
1.262,-0.10498,0.0939941
1.2625,-0.108032,0.406494
1.263,-0.0808716,0.71991
1.2635,-0.0408936,0.575562
1.264,0.00183105,0.21637
1.2645,0.00366211,0.0241089
1.265,0.00335693,0.00976563
1.2655,0.0247192,0.0585938
1.266,0.0296021,0.0747681
1.2665,0.0131226,0.0668335
1.267,0.000305176,0.0744629
1.2675,0.0,0.0689697
1.268,0.0112915,0.0796509
1.2685,0.0180054,0.0726318
1.269,0.0177002,0.10376
1.2695,0.0198364,0.140686
1.27,0.0241089,0.163269
1.2705,0.00518799,0.178223
1.271,-0.0100708,0.18158
1.2715,-0.0119019,0.151672
1.272,-0.000305176,0.114136
1.2725,-0.0268555,0.0558472
1.273,-0.0259399,-0.187378
1.2735,0.0201416,-0.374451
1.274,0.0546265,-0.510559
1.2745,0.067749,-0.586548
1.275,0.0701904,-0.536499
1.2755,0.0704956,-0.408325
1.276,0.0585938,-0.236511
1.2765,0.0500488,-0.0921631
1.277,0.0375366,-0.00427246
1.2775,0.0198364,0.0106812
1.278,0.0271606,-0.00549316
1.2785,0.0662231,-0.00427246
1.279,0.107727,-0.000915527
1.2795,0.10376,-0.0317383
1.28,0.0732422,-0.0964355
1.2805,0.0421143,-0.050354
1.281,0.00701904,0.022583
1.2815,-0.0213623,0.0723267
1.282,-0.0253296,0.093689
1.2825,-0.0286865,0.101929
1.283,-0.0473022,0.0991821
1.2835,-0.0708008,0.0900269
1.284,-0.0900269,0.0845337
1.2845,-0.108948,0.0897217
1.285,-0.128479,0.0906372
1.2855,-0.145569,0.0823975
1.286,-0.131531,0.0479126
1.2865,-0.0875854,0.0134277
1.287,-0.0497437,0.0299072
1.2875,-0.0354004,0.0585938
1.288,-0.0402832,0.00793457
1.2885,-0.0341797,-0.107117
1.289,-0.0265503,-0.150146
1.2895,-0.0161743,-0.0549316
1.29,0.00488281,0.090332
1.2905,0.0228882,0.158081
1.291,0.0408936,0.124817
1.2915,0.0631714,0.0857544
1.292,0.0662231,0.0637817
1.2925,0.0616455,0.0457764
1.293,0.0411987,0.039978
1.2935,0.0216675,0.0540161
1.294,0.0143433,0.0643921
1.2945,0.0109863,0.0582886
1.295,0.0250244,0.0485229
1.2955,0.032959,0.0311279
1.296,0.012207,0.0338745
1.2965,-0.000915527,0.0680542
1.297,0.00152588,0.118103
1.2975,0.00946045,0.152893
1.298,0.0112915,0.162048
1.2985,0.0012207,0.144348
1.299,-0.00701904,0.0924683
1.2995,-0.00244141,0.027771
1.3,-0.000610352,0.00732422
1.3005,0.0012207,0.0735474
1.301,0.00610352,0.0686646
1.3015,0.00976563,0.0146484
1.302,0.00244141,-0.0335693
1.3025,0.0,-0.274963
1.303,0.00457764,-0.479431
1.3035,0.0140381,-0.559387
1.304,0.00640869,-0.597534
1.3045,-0.0109863,-0.374451
1.305,-0.0283813,-0.0588989
1.3055,-0.0387573,0.134277
1.306,-0.0598145,0.142822
1.3065,-0.0631714,0.0619507
1.307,-0.0335693,0.0134277
1.3075,0.00579834,0.0109863
1.308,0.0482178,0.0100708
1.3085,0.0869751,-0.0012207
1.309,0.114136,-0.0387573
1.3095,0.0991821,-0.119324
1.31,0.0576782,-0.252075
1.3105,0.0177002,-0.284119
1.311,-0.00488281,0.0119019
1.3115,-0.0241089,0.175171
1.312,-0.043335,0.20874
1.3125,-0.0469971,0.177307
1.313,-0.0457764,0.176392
1.3135,-0.0384521,0.171509
1.314,-0.0265503,0.0952148
1.3145,-0.0219727,0.0613403
1.315,-0.00213623,0.090332
1.3155,0.043335,0.276794
1.316,0.0845337,0.396118
1.3165,0.103149,0.375671
1.317,0.117188,0.236816
1.3175,0.0946045,-0.012207
1.318,0.0564575,-0.385742
1.3185,0.0311279,-0.308228
1.319,0.010376,-0.0482178
1.3195,0.0088501,0.0628662
1.32,0.0256348,0.0680542
1.3205,0.0323486,0.0213623
1.321,0.0149536,-0.0546265
1.3215,-0.0177002,-0.187073
1.322,-0.0527954,-0.25238
1.3225,-0.0769043,-0.115662
1.323,-0.0958252,-0.050354
1.3235,-0.103149,-0.0845337
1.324,-0.100403,-0.0714111
1.3245,-0.0991821,-0.0595093
1.325,-0.110779,-0.0415039
1.3255,-0.126343,0.017395
1.326,-0.129089,0.0463867
1.3265,-0.124512,0.0897217
1.327,-0.0808716,0.150146
1.3275,-0.0518799,0.105591
1.328,-0.0387573,-0.0692749
1.3285,0.0,-0.369263
1.329,0.0299072,-0.436096
1.3295,0.03479,-0.256348
1.33,0.0411987,-0.0506592
1.3305,0.0567627,0.112915
1.331,0.0613403,0.253906
1.3315,0.032959,0.280762
1.332,0.0134277,0.220032
1.3325,0.000610352,0.176392
1.333,-0.00427246,0.145874
1.3335,-0.000305176,0.137939
1.334,0.00640869,0.101624
1.3345,0.0128174,0.039978
1.335,0.0164795,-0.0149536
1.3355,0.0332642,-0.0595093
1.336,0.0558472,-0.0796509
1.3365,0.0653076,-0.10437
1.337,0.0744629,-0.122375
1.3375,0.0906372,-0.101929
1.338,0.088501,-0.0256348
1.3385,0.0775146,0.0411987
1.339,0.0476074,0.0689697
1.3395,0.0186157,0.0805664
1.34,-0.00244141,0.0592041
1.3405,-0.00976563,-0.0302124
1.341,0.00457764,-0.050354
1.3415,0.0228882,-0.0292969
1.342,0.000610352,-0.00915527
1.3425,-0.0183105,0.0396729
1.343,-0.0241089,0.0933838
1.3435,-0.0369263,0.108032
1.344,-0.0387573,-0.0189209
1.3445,-0.0445557,-0.310974
1.345,-0.0576782,-0.347595
1.3455,-0.0567627,-0.186462
1.346,-0.0454712,-0.0540161
1.3465,-0.0363159,0.0088501
1.347,-0.0256348,0.0579834
1.3475,-0.0177002,0.110168
1.348,-0.00274658,0.113525
1.3485,-0.0234985,0.0531006
1.349,-0.0476074,0.0866699
1.3495,-0.0494385,0.133057
1.35,-0.0265503,0.178528
1.3505,0.00579834,0.203247
1.351,0.0192261,0.154724
1.3515,0.0323486,0.0912476
1.352,0.0588989,0.0650024
1.3525,0.0701904,0.0671387
1.353,0.0665283,0.0643921
1.3535,0.0628662,0.0762939
1.354,0.0442505,0.0778198
1.3545,0.0198364,0.0012207
1.355,-0.012207,-0.22583
1.3555,-0.0253296,-0.301819
1.356,-0.0344849,-0.158997
1.3565,-0.0299072,-0.0610352
1.357,0.010376,-0.110779
1.3575,0.0363159,-0.158997
1.358,0.0354004,-0.0985718
1.3585,0.0265503,0.00579834
1.359,0.0231934,0.0567627
1.3595,0.00396729,0.0823975
1.36,-0.0485229,0.124512
1.3605,-0.117188,0.167542
1.361,-0.114136,0.19989
1.3615,-0.0622559,0.227966
1.362,0.000915527,0.205688
1.3625,0.0411987,0.120544
1.363,0.0717163,0.118408
1.3635,0.0741577,0.110168
1.364,0.0442505,-0.0152588
1.3645,-0.010376,-0.149231
1.365,-0.0421143,-0.140991
1.3655,-0.0912476,-0.0509644
1.366,-0.133057,-0.0357056
1.3665,-0.13855,-0.132141
1.367,-0.12085,-0.339661
1.3675,-0.11322,-0.41748
1.368,-0.115051,-0.416565
1.3685,-0.0930786,-0.260315
1.369,-0.0335693,-0.0701904
1.3695,0.0802612,0.0622559
1.37,0.201416,0.0460815
1.3705,0.264893,-0.173645
1.371,0.26123,-0.180359
1.3715,0.222778,-0.038147
1.372,0.201416,0.0283813
1.3725,0.193787,0.0274658
1.373,0.155334,0.0274658
1.3735,0.0976563,0.167847
1.374,0.0354004,0.228882
1.3745,-0.0149536,0.142212
1.375,-0.0405884,0.0338745
1.3755,-0.0549316,0.0332642
1.376,-0.0640869,0.0942993
1.3765,-0.0735474,0.167847
1.377,-0.0814819,0.19165
1.3775,-0.0775146,0.179749
1.378,-0.0738525,0.229797
1.3785,-0.0753784,0.221558
1.379,-0.0790405,0.078125
1.3795,-0.0854492,-0.240173
1.38,-0.0747681,-0.441284
1.3805,-0.0518799,-0.212402
1.381,-0.0280762,0.0177002
1.3815,-0.00396729,0.0827026
1.382,0.0088501,0.0320435
1.3825,0.010376,-0.03479
1.383,0.00427246,-0.176086
1.3835,-0.00366211,-0.177917
1.384,-0.012207,-0.1297
1.3845,-0.0213623,-0.137634
1.385,-0.038147,-0.124512
1.3855,-0.0714111,-0.0390625
1.386,-0.098877,0.0509644
1.3865,-0.101624,0.107727
1.387,-0.0827026,0.116882
1.3875,-0.0665283,0.0958252
1.388,-0.098877,0.0726318
1.3885,-0.13916,0.0680542
1.389,-0.122375,0.0604248
1.3895,-0.0674438,0.0393677
1.39,-0.0231934,-0.057373
1.3905,0.00183105,-0.0579834
1.391,0.0210571,0.0479126
1.3915,0.0335693,0.142517
1.392,0.03479,0.194702
1.3925,0.0567627,0.140991
1.393,0.0823975,0.062561
1.3935,0.102539,0.13092
1.394,0.112305,0.172729
1.3945,0.127258,0.261536
1.395,0.160522,0.331726
1.3955,0.180054,0.247192
1.396,0.177917,0.116882
1.3965,0.169983,-0.127258
1.397,0.157471,-0.310669
1.3975,0.121765,-0.271912
1.398,0.0830078,-0.0897217
1.3985,0.0463867,-0.03479
1.399,0.00854492,-0.233154
1.3995,-0.00854492,-0.506592
1.4,-0.0167847,-0.579834
1.4005,-0.0265503,-0.379028
1.401,-0.0442505,-0.122375
1.4015,-0.065918,0.055542
1.402,-0.0827026,0.0665283
1.4025,-0.0723267,0.0714111
1.403,-0.0686646,0.0799561
1.4035,-0.0408936,0.0912476
1.404,-0.0210571,0.114441
1.4045,-0.0219727,0.160217
1.405,-0.0259399,0.171814
1.4055,-0.0305176,0.160828
1.406,-0.0326538,0.135498
1.4065,-0.0375366,0.130615
1.407,-0.0436401,0.118103
1.4075,-0.0418091,0.113525
1.408,-0.043335,0.103149
1.4085,-0.0463867,0.0585938
1.409,-0.043335,0.0210571
1.4095,-0.0372314,-0.00976563
1.41,-0.0222778,-0.0967407
1.4105,-0.000305176,-0.231628
1.411,0.0216675,-0.303345
1.4115,0.0289917,-0.0915527
1.412,0.0204468,0.0845337
1.4125,0.00183105,0.0167847
1.413,-0.00762939,-0.0619507
1.4135,-0.00366211,-0.0390625
1.414,-0.00335693,0.00183105
1.4145,-0.012207,0.0164795
1.415,-0.0231934,0.010376
1.4155,-0.0372314,-0.0219727
1.416,-0.0479126,-0.0619507
1.4165,-0.0592041,-0.00701904
1.417,-0.0628662,0.0979614
1.4175,-0.0469971,0.183411
1.418,-0.0192261,0.194702
1.4185,-0.00518799,0.177917
1.419,-0.00152588,0.159302
1.4195,0.0134277,0.131836
1.42,0.0244141,0.118713
1.4205,0.0222778,0.0863647
1.421,0.0146484,0.0692749
1.4215,0.00244141,0.083313
1.422,-0.00518799,0.0396729
1.4225,-0.00427246,-0.209351
1.423,0.00213623,-0.54657
1.4235,0.00518799,-0.556641
1.424,0.00274658,-0.332031
1.4245,0.0,-0.102234
1.425,0.0,0.0131226
1.4255,-0.00946045,0.071106
1.426,-0.0119019,0.107117
1.4265,0.00152588,0.0576782
1.427,0.0231934,0.00396729
1.4275,0.0375366,0.0112915
1.428,0.0439453,0.0457764
1.4285,0.055542,0.017395
1.429,0.0683594,-0.0427246
1.4295,0.06073,-0.0378418
1.43,0.0567627,0.0360107
1.4305,0.0524902,0.0674438
1.431,0.038147,0.0735474
1.4315,0.0109863,0.0946045
1.432,-0.0302124,0.114746
1.4325,-0.0512695,0.0268555
1.433,-0.0588989,-0.10376
1.4335,-0.0653076,-0.0878906
1.434,-0.0561523,-0.000915527
1.4345,-0.0488281,0.0488281
1.435,-0.045166,0.0265503
1.4355,-0.0335693,-0.0692749
1.436,-0.0177002,-0.0732422
1.4365,0.00244141,0.0576782
1.437,0.0210571,0.0463867
1.4375,0.0311279,0.00823975
1.438,0.0238037,0.0631714
1.4385,-0.00610352,0.0967407
1.439,-0.00549316,0.0881958
1.4395,-0.00213623,0.159302
1.44,0.000610352,0.179749
1.4405,0.000305176,0.184021
1.441,0.0161743,0.177917
1.4415,0.0262451,0.150452
1.442,0.0457764,-0.0653076
1.4425,0.062561,-0.245056
1.443,0.0662231,-0.100708
1.4435,0.0543213,0.0634766
1.444,0.0268555,0.179749
1.4445,0.00305176,0.144958
1.445,0.0167847,0.0231934
1.4455,0.0396729,-0.116882
1.446,0.0280762,-0.179443
1.4465,0.0219727,-0.137329
1.447,0.0302124,-0.135803
1.4475,0.0271606,-0.150757
1.448,0.043335,-0.215759
1.4485,0.067749,-0.234375
1.449,0.0775146,-0.132446
1.4495,0.0662231,-0.0970459
1.45,0.0430298,-0.144958
1.4505,0.0411987,-0.240784
1.451,0.00213623,-0.123596
1.4515,-0.0369263,0.0427246
1.452,-0.062561,-0.00183105
1.4525,-0.0991821,-0.0271606
1.453,-0.0939941,-0.0265503
1.4535,-0.0549316,-0.0656128
1.454,-0.00549316,-0.0619507
1.4545,0.0238037,-0.0466919
1.455,0.0228882,-0.0180054
1.4555,0.0131226,0.0411987
1.456,-0.0100708,0.0637817
1.4565,-0.0460815,0.0561523
1.457,-0.0714111,0.0613403
1.4575,-0.0784302,0.065918
1.458,-0.0793457,0.065918
1.4585,-0.0765991,0.0619507
1.459,-0.0640869,0.0469971
1.4595,-0.0509644,0.0463867
1.46,-0.0512695,0.0506592
1.4605,-0.0375366,0.067749
1.461,-0.00762939,0.067749
1.4615,0.0213623,0.083313
1.462,0.0387573,0.152893
1.4625,0.0357056,0.143738
1.463,0.0186157,0.0598145
1.4635,-0.0115967,0.0265503
1.464,-0.0402832,0.0735474
1.4645,-0.0552368,0.137939
1.465,-0.0619507,0.198669
1.4655,-0.0570679,0.219116
1.466,-0.0247192,0.193481
1.4665,-0.00274658,0.124207
1.467,0.0,0.0857544
1.4675,-0.000305176,0.116577
1.468,-0.000610352,0.0918579
1.4685,-0.0186157,-0.0601196
1.469,-0.027771,-0.129089
1.4695,-0.0161743,-0.0881958
1.47,-0.0143433,-0.0601196
1.4705,-0.00427246,-0.265503
1.471,-0.017395,-0.250854
1.4715,-0.0558472,0.0250244
1.472,-0.0787354,0.188599
1.4725,-0.0436401,0.171204
1.473,-0.0195313,0.10437
1.4735,0.00366211,0.111084
1.474,0.0369263,0.0845337
1.4745,0.0595093,0.0485229
1.475,0.0805664,0.0271606
1.4755,0.078125,0.00457764
1.476,0.067749,-0.0473022
1.4765,0.0616455,-0.212708
1.477,0.0576782,-0.65155
1.4775,0.0515747,-0.921936
1.478,0.0524902,-0.647888
1.4785,0.0527954,-0.174866
1.479,0.038147,0.0860596
1.4795,0.0189209,0.263367
1.48,0.00823975,0.379028
1.4805,0.00427246,0.196838
1.481,-0.00854492,-0.0848389
1.4815,0.000610352,-0.173035
1.482,-0.0119019,-0.0143433
1.4825,-0.0210571,0.108337
1.483,-0.0152588,0.0540161
1.4835,-0.015564,-0.0170898
1.484,-0.0012207,-0.0253296
1.4845,0.0350952,-0.0161743
1.485,0.0750732,0.0372314
1.4855,0.0869751,0.0891113
1.486,0.0628662,0.140076
1.4865,0.038147,0.152893
1.487,0.000305176,0.100708
1.4875,-0.0231934,0.0131226
1.488,-0.0338745,-0.0479126
1.4885,-0.0222778,-0.0601196
1.489,-0.020752,-0.0448608
1.4895,-0.0305176,0.020752
1.49,-0.0247192,0.0442505
1.4905,0.00335693,0.0363159
1.491,0.0170898,0.0177002
1.4915,0.0213623,0.0418091
1.492,-0.00701904,0.0402832
1.4925,-0.0219727,-0.0299072
1.493,-0.0115967,-0.00488281
1.4935,0.0012207,-0.0106812
1.494,0.00579834,-0.067749
1.4945,-0.000305176,-0.0231934
1.495,-0.00244141,0.0424194
1.4955,0.00762939,0.115662
1.496,0.022583,0.0753784
1.4965,0.0216675,0.157471
1.497,0.00244141,0.230713
1.4975,-0.0357056,0.122986
1.498,-0.0427246,-0.000305176
1.4985,-0.0189209,-0.0949097
1.499,0.00976563,-0.0628662
1.4995,0.0189209,0.0128174
1.5,0.0283813,0.0296021
1.5005,0.0524902,-0.104065
1.501,0.0479126,-0.222168
1.5015,0.00549316,-0.131531
1.502,-0.022583,-0.039978
1.5025,-0.032959,-0.0183105
1.503,-0.038147,-0.022583
1.5035,-0.0527954,-0.0100708
1.504,-0.0650024,0.00152588
1.5045,-0.0698853,0.00213623
1.505,-0.0802612,0.00366211
1.5055,-0.0756836,0.00244141
1.506,-0.0524902,-0.00274658
1.5065,-0.03479,0.0
1.507,-0.00396729,0.0177002
1.5075,0.0415039,0.0259399
1.508,0.0735474,0.0253296
1.5085,0.0775146,0.0311279
1.509,0.0512695,0.0476074
1.5095,0.020752,0.0494385
1.51,-0.00152588,0.0457764
1.5105,-0.00762939,0.0500488
1.511,-0.0137329,0.0445557
1.5115,-0.0189209,0.0735474
1.512,-0.0134277,0.0808716
1.5125,-0.00640869,0.0424194
1.513,-0.00671387,0.032959
1.5135,-0.00640869,0.0167847
1.514,-0.00671387,0.00640869
1.5145,-0.0186157,-0.0238037
1.515,-0.0494385,-0.0836182
1.5155,-0.0595093,-0.0759888
1.516,-0.0421143,-0.0314331
1.5165,-0.0128174,-0.0192261
1.517,0.0100708,-0.131531
1.5175,0.00335693,-0.279236
1.518,0.00366211,-0.250244
1.5185,0.00244141,-0.110168
1.519,-0.0161743,-0.012207
1.5195,-0.0253296,0.0299072
1.52,-0.0140381,0.0527954
1.5205,-0.0125122,0.0576782
1.521,-0.00701904,0.0619507
1.5215,0.0186157,0.0891113
1.522,0.0283813,0.123901
1.5225,0.0161743,0.112915
1.523,-0.000915527,0.0784302
1.5235,-0.00671387,0.0613403
1.524,0.0106812,0.0469971
1.5245,0.0466919,0.0140381
1.525,0.0732422,-0.0195313
1.5255,0.0570679,-0.0686646
1.526,0.0292969,-0.0830078
1.5265,0.0119019,-0.0518799
1.527,0.00488281,0.0112915
1.5275,0.00823975,0.0479126
1.528,0.0180054,0.0476074
1.5285,0.0244141,-0.0280762
1.529,0.0292969,-0.106812
1.5295,0.0299072,-0.0888062
1.53,0.020752,-0.0686646
1.5305,0.0161743,-0.0482178
1.531,0.0183105,0.0183105
1.5315,0.0283813,0.0924683
1.532,0.0131226,0.118713
1.5325,-0.0274658,0.144653
1.533,-0.0457764,0.135803
1.5335,-0.0537109,0.172729
1.534,-0.0491333,0.230103
1.5345,-0.0460815,0.211792
1.535,-0.0531006,0.197144
1.5355,-0.0765991,0.149536
1.536,-0.0811768,0.0827026
1.5365,-0.0708008,0.0238037
1.537,-0.0512695,0.0552368
1.5375,-0.0292969,0.0698853
1.538,-0.00457764,-0.145569
1.5385,0.0131226,-0.711365
1.539,0.0302124,-0.777893
1.5395,0.0604248,-0.389404
1.54,0.0997925,-0.285645
1.5405,0.141907,-0.123596
1.541,0.153809,0.03479
1.5415,0.132751,0.093689
1.542,0.131836,0.188599
1.5425,0.135498,0.152283
1.543,0.106201,0.06073
1.5435,0.0469971,-0.0115967
1.544,0.00305176,-0.0344849
1.5445,-0.0140381,0.0469971
1.545,-0.00396729,0.223694
1.5455,-0.017395,0.339661
1.546,-0.0531006,0.380554
1.5465,-0.0778198,0.336914
1.547,-0.0735474,0.323792
1.5475,-0.0613403,0.28656
1.548,-0.062561,0.115662
1.5485,-0.067749,-0.243225
1.549,-0.0704956,-0.474548
1.5495,-0.0604248,-0.452881
1.55,-0.0427246,-0.487061
1.5505,-0.0299072,-0.6604
1.551,-0.0292969,-0.55481
1.5515,-0.0271606,-0.327454
1.552,-0.0170898,-0.0814819
1.5525,-0.0201416,0.0628662
1.553,-0.012207,0.0863647
1.5535,-0.00701904,0.0473022
1.554,-0.0186157,0.00396729
1.5545,-0.0219727,-0.0213623
1.555,-0.0308228,0.00244141
1.5555,-0.0344849,0.0622559
1.556,-0.0357056,0.118713
1.5565,-0.038147,0.128784
1.557,-0.0405884,0.158386
1.5575,-0.0476074,0.178528
1.558,-0.0549316,0.16449
1.5585,-0.0531006,0.155945
1.559,-0.0488281,0.170593
1.5595,-0.0497437,0.208435
1.56,-0.0219727,0.184937
1.5605,0.0198364,0.143433
1.561,0.0488281,0.110168
1.5615,0.0595093,0.0997925
1.562,0.0622559,0.0888062
1.5625,0.0863647,0.0802612
1.563,0.114136,0.0643921
1.5635,0.110474,0.0558472
1.564,0.0976563,0.0183105
1.5645,0.0991821,-0.0424194
1.565,0.0775146,-0.127869
1.5655,0.0369263,-0.157776
1.566,-0.00152588,-0.00701904
1.5665,-0.0265503,0.133972
1.567,-0.032959,0.0442505
1.5675,-0.0238037,-0.00244141
1.568,-0.00671387,0.015564
1.5685,-0.00518799,-0.0317383
1.569,-0.0216675,-0.0811768
1.5695,-0.0259399,-0.10376
1.57,-0.0128174,-0.111389
1.5705,0.00457764,-0.0869751
1.571,0.0112915,-0.0656128
1.5715,0.0100708,-0.050354
1.572,0.00793457,-0.0354004
1.5725,0.00976563,-0.0183105
1.573,-0.0189209,-0.00793457
1.5735,-0.0488281,-0.00366211
1.574,-0.0463867,-0.00396729
1.5745,-0.0241089,-0.00152588
1.575,-0.000915527,0.00152588
1.5755,-0.00366211,0.00366211
1.576,-0.032959,0.00640869
1.5765,-0.0613403,0.00946045
1.577,-0.0811768,0.00946045
1.5775,-0.085144,0.0100708
1.578,-0.0872803,0.0131226
1.5785,-0.090332,0.0158691
1.579,-0.0939941,0.0170898
1.5795,-0.110474,0.0222778
1.58,-0.102844,0.0262451
1.5805,-0.0891113,0.0335693
1.581,-0.0805664,0.0396729
1.5815,-0.0604248,0.0344849
1.582,-0.0299072,0.0238037
1.5825,0.00854492,0.0326538
1.583,0.0396729,0.0527954
1.5835,0.050354,0.0823975
1.584,0.0421143,0.0909424
1.5845,0.045166,0.0726318
1.585,0.0756836,0.00579834
1.5855,0.13031,-0.0769043
1.586,0.158386,-0.0930786
1.5865,0.160522,-0.0274658
1.587,0.1828,0.0738525
1.5875,0.25177,0.183411
1.588,0.291748,0.169678
1.5885,0.300903,-0.152283
1.589,0.279236,-0.25177
1.5895,0.214844,-0.266418
1.59,0.124207,-0.154114
1.5905,0.0515747,-0.0213623
1.591,0.0149536,0.0198364
1.5915,-0.00610352,0.0192261
1.592,-0.0302124,0.0198364
1.5925,-0.0564575,0.0479126
1.593,-0.0952148,0.0717163
1.5935,-0.13092,0.090332
1.594,-0.136719,0.115356
1.5945,-0.1297,0.111389
1.595,-0.125122,0.0210571
1.5955,-0.119019,-0.142212
1.596,-0.112915,-0.19165
1.5965,-0.110474,-0.06073
1.597,-0.108948,0.0512695
1.5975,-0.10376,0.110474
1.598,-0.0921631,0.0643921
1.5985,-0.0796509,-0.175476
1.599,-0.065918,-0.493164
1.5995,-0.0494385,-0.639343
1.6,-0.0427246,-0.465698
1.6005,-0.0494385,-0.157471
1.601,-0.0506592,0.00396729
1.6015,-0.0445557,0.0778198
1.602,-0.0360107,0.072937
1.6025,-0.0244141,0.0942993
1.603,-0.0164795,0.135193
1.6035,-0.012207,0.177002
1.604,-0.0125122,0.157471
1.6045,-0.0146484,0.114136
1.605,-0.0192261,0.102234
1.6055,-0.0189209,0.131531
1.606,-0.0210571,0.153809
1.6065,-0.0128174,0.15686
1.607,-0.00549316,0.110779
1.6075,0.0137329,0.0564575
1.608,0.0378418,0.090332
1.6085,0.0473022,0.130615
1.609,0.0363159,0.133972
1.6095,0.0167847,0.151672
1.61,0.00701904,0.187378
1.6105,0.0106812,0.212097
1.611,0.0137329,0.216675
1.6115,0.0119019,0.227356
1.612,0.00518799,0.19928
1.6125,-0.00152588,0.143738
1.613,-0.00610352,0.0778198
1.6135,-0.020752,0.0201416
1.614,-0.0427246,-0.123901
1.6145,-0.0540161,-0.30426
1.615,-0.0576782,-0.299683
1.6155,-0.0515747,-0.257568
1.616,-0.0363159,-0.211487
1.6165,0.00396729,-0.210571
1.617,0.0341797,-0.250244
1.6175,0.0292969,-0.254517
1.618,0.0253296,-0.167236
1.6185,0.0402832,-0.274658
1.619,0.0527954,-0.328979
1.6195,0.0317383,-0.161133
1.62,0.00274658,-0.0338745
1.6205,-0.0125122,0.0259399
1.621,-0.00854492,0.0772095
1.6215,-0.00946045,0.0982666
1.622,0.00427246,0.137329
1.6225,0.0231934,0.195313
1.623,0.0213623,0.203857
1.6235,-0.000305176,0.193787
1.624,-0.0408936,0.17334
1.6245,-0.0482178,0.158081
1.625,-0.0323486,0.151367
1.6255,-0.0152588,0.153503
1.626,0.0115967,0.143738
1.6265,0.0354004,0.10376
1.627,0.0469971,-0.0714111
1.6275,0.0704956,-0.240479
1.628,0.110474,-0.240784
1.6285,0.151672,-0.213623
1.629,0.174866,-0.163574
1.6295,0.179443,-0.13031
1.63,0.168457,-0.032959
1.6305,0.123901,0.0283813
1.631,0.0698853,0.0201416
1.6315,0.0143433,-0.0436401
1.632,-0.0210571,-0.131836
1.6325,-0.0314331,-0.0924683
1.633,-0.0308228,-0.0299072
1.6335,-0.0222778,-0.0753784
1.634,-0.00976563,-0.125732
1.6345,-0.00396729,-0.0152588
1.635,0.00274658,0.147095
1.6355,0.0134277,0.12085
1.636,-0.00854492,0.0726318
1.6365,-0.0546265,0.0491333
1.637,-0.0866699,0.0485229
1.6375,-0.0982666,0.0549316
1.638,-0.0796509,0.0604248
1.6385,-0.057373,0.0665283
1.639,-0.0698853,0.0793457
1.6395,-0.0772095,0.093689
1.64,-0.062561,0.100403
1.6405,-0.0479126,0.105591
1.641,-0.0314331,0.0985718
1.6415,-0.0256348,0.0750732
1.642,-0.0271606,0.0701904
1.6425,-0.0241089,0.0680542
1.643,-0.0241089,0.027771
1.6435,-0.0302124,-0.00183105
1.644,-0.0354004,-0.010376
1.6445,-0.03479,-0.0253296
1.645,-0.0369263,-0.0323486
1.6455,-0.0350952,-0.132141
1.646,-0.0308228,-0.354309
1.6465,-0.0238037,-0.402527
1.647,-0.0140381,-0.340881
1.6475,0.00152588,-0.140381
1.648,0.0115967,0.12207
1.6485,0.0238037,0.238342
1.649,0.0341797,0.393066
1.6495,0.039978,0.390015
1.65,0.0274658,0.209351
1.6505,0.0219727,0.0994873
1.651,0.0201416,0.0540161
1.6515,0.017395,0.0289917
1.652,0.00549316,0.00366211
1.6525,0.00640869,-0.00976563
1.653,0.0222778,-0.00579834
1.6535,0.0323486,0.00793457
1.654,0.0311279,0.0204468
1.6545,0.0244141,0.0488281
1.655,0.0283813,0.0488281
1.6555,0.0396729,0.0320435
1.656,0.0390625,0.0170898
1.6565,0.0314331,0.0100708
1.657,0.0146484,0.0268555
1.6575,-0.00335693,0.0698853
1.658,-0.0228882,0.184937
1.6585,-0.03479,0.167542
1.659,-0.0436401,-0.100403
1.6595,-0.0482178,-0.189209
1.66,-0.0582886,-0.198364
1.6605,-0.0756836,-0.193787
1.661,-0.0848389,-0.124817
1.6615,-0.0668335,-0.0704956
1.662,-0.0250244,-0.0405884
1.6625,0.0302124,-0.00854492
1.663,0.0772095,0.0683594
1.6635,0.116577,0.136108
1.664,0.13855,0.03479
1.6645,0.132751,-0.205994
1.665,0.0997925,-0.151672
1.6655,0.0546265,0.0283813
1.666,0.010376,0.0878906
1.6665,-0.0228882,-0.0289917
1.667,-0.0469971,-0.148315
1.6675,-0.057373,-0.198975
1.668,-0.0592041,-0.111694
1.6685,-0.0875854,-0.0732422
1.669,-0.124817,-0.0784302
1.6695,-0.127258,-0.160522
1.67,-0.0704956,-0.202332
1.6705,-0.0286865,-0.136414
1.671,-0.0189209,-0.00549316
1.6715,-0.0186157,0.0460815
1.672,-0.0137329,0.0891113
1.6725,-0.0128174,0.123596
1.673,-0.00183105,0.140381
1.6735,0.0146484,0.197754
1.674,0.0296021,0.24353
1.6745,0.0415039,0.220337
1.675,0.0527954,0.194397
1.6755,0.0756836,0.140991
1.676,0.0848389,-0.0253296
1.6765,0.0784302,-0.0900269
1.677,0.0689697,-0.131836
1.6775,0.0405884,-0.235596
1.678,0.0262451,-0.245972
1.6785,0.022583,-0.326538
1.679,0.0250244,-0.396118
1.6795,0.00915527,-0.367126
1.68,-0.000610352,-0.293579
1.6805,-0.00488281,-0.0463867
1.681,-0.00549316,0.121155
1.6815,-0.00946045,0.180359
1.682,-0.017395,0.167847
1.6825,-0.0180054,0.137634
1.683,-0.0186157,0.119629
1.6835,-0.0299072,0.0982666
1.684,-0.0436401,0.0918579
1.6845,-0.0454712,0.0976563
1.685,-0.0418091,0.100708
1.6855,-0.038147,0.0949097
1.686,-0.0408936,0.0827026
1.6865,-0.0564575,0.0778198
1.687,-0.0497437,0.0643921
1.6875,-0.038147,0.032959
1.688,-0.0326538,0.0146484
1.6885,-0.03479,0.00305176
1.689,-0.0302124,0.0350952
1.6895,-0.0479126,0.098877
1.69,-0.0784302,0.163879
1.6905,-0.0949097,0.197449
1.691,-0.0949097,0.188599
1.6915,-0.0741577,0.170593
1.692,-0.0466919,0.168457
1.6925,-0.0189209,0.135803
1.693,0.00549316,-0.0158691
1.6935,0.0396729,-0.0463867
1.694,0.0683594,0.0137329
1.6945,0.0747681,0.020752
1.695,0.0714111,-0.0427246
1.6955,0.072937,-0.202942
1.696,0.0933838,-0.323792
1.6965,0.121155,-0.190125
1.697,0.135498,-0.0759888
1.6975,0.147705,-0.168762
1.698,0.177917,-0.207825
1.6985,0.21698,-0.142212
1.699,0.21637,-0.122986
1.6995,0.166626,-0.11261
1.7,0.100098,-0.065918
1.7005,0.0320435,-0.0372314
1.701,-0.00457764,-0.0143433
1.7015,-0.0259399,0.00793457
1.702,-0.0411987,0.017395
1.7025,-0.0527954,0.0158691
1.703,-0.0817871,0.015564
1.7035,-0.122681,0.0198364
1.704,-0.127258,0.0350952
1.7045,-0.114136,0.0500488
1.705,-0.0958252,0.0628662
1.7055,-0.0827026,0.0726318
1.706,-0.0683594,0.112
1.7065,-0.0485229,0.174866
1.707,-0.0369263,0.1474
1.7075,-0.0283813,0.109253
1.708,-0.0344849,0.0912476
1.7085,-0.043335,0.0726318
1.709,-0.0534058,0.0500488
1.7095,-0.0643921,0.0180054
1.71,-0.0704956,-0.0338745
1.7105,-0.0744629,-0.0250244
1.711,-0.0784302,0.020752
1.7115,-0.0765991,0.050354
1.712,-0.0686646,0.0692749
1.7125,-0.0527954,0.0842285
1.713,-0.0292969,0.0863647
1.7135,-0.00793457,0.0695801
1.714,0.00366211,0.0274658
1.7145,0.0195313,0.0164795
1.715,0.038147,0.020752
1.7155,0.0558472,-0.0344849
1.716,0.0726318,-0.134888
1.7165,0.0616455,-0.142822
1.717,0.0161743,-0.0427246
1.7175,-0.0320435,0.0524902
1.718,-0.0570679,0.0747681
1.7185,-0.0463867,-0.0750732
1.719,-0.027771,-0.275269
1.7195,-0.0152588,-0.187378
1.72,0.00457764,-0.055542
1.7205,0.0305176,-0.00274658
1.721,0.0521851,0.0509644
1.7215,0.0616455,0.0448608
1.722,0.0656128,0.000915527
1.7225,0.0582886,-0.0845337
1.723,0.0518799,-0.131531
1.7235,0.0558472,-0.0286865
1.724,0.072937,0.067749
1.7245,0.0759888,0.093689
1.725,0.0592041,0.0939941
1.7255,0.0521851,0.176392
1.726,0.0567627,0.183105
1.7265,0.0704956,-0.0741577
1.727,0.0894165,-0.48584
1.7275,0.093689,-0.511169
1.728,0.106506,-0.320129
1.7285,0.109558,-0.0354004
1.729,0.0772095,0.126953
1.7295,0.0326538,0.154419
1.73,-0.00213623,0.151672
1.7305,-0.0228882,0.0759888
1.731,-0.0335693,0.107422
1.7315,-0.0640869,0.152588
1.732,-0.0878906,0.120239
1.7325,-0.0817871,0.240479
1.733,-0.0637817,0.308838
1.7335,-0.0430298,0.292053
1.734,-0.0314331,0.227661
1.7345,-0.0228882,0.136719
1.735,-0.020752,0.112305
1.7355,-0.0219727,0.0802612
1.736,-0.0183105,-0.0430298
1.7365,-0.0326538,-0.292358
1.737,-0.0540161,-0.432434
1.7375,-0.0854492,-0.343933
1.738,-0.111084,-0.289001
1.7385,-0.132446,-0.214539
1.739,-0.120544,-0.216675
1.7395,-0.0967407,-0.272827
1.74,-0.0906372,-0.23468
1.7405,-0.090332,-0.159302
1.741,-0.0592041,-0.0350952
1.7415,-0.0335693,0.0720215
1.742,-0.020752,0.123291
1.7425,-0.0119019,0.137939
1.743,0.012207,0.143127
1.7435,0.0335693,0.135803
1.744,0.0469971,0.115662
1.7445,0.0686646,0.0848389
1.745,0.0939941,0.0759888
1.7455,0.0997925,0.0726318
1.746,0.0875854,0.0271606
1.7465,0.0662231,-0.00427246
1.747,0.0668335,-0.0445557
1.7475,0.0741577,-0.0994873
1.748,0.065918,-0.0976563
1.7485,0.0387573,-0.0680542
1.749,0.0164795,-0.0250244
1.7495,0.00610352,0.0305176
1.75,-0.00518799,0.067749
1.7505,-0.0119019,0.0756836
1.751,-0.0183105,0.0692749
1.7515,-0.015564,0.0787354
1.752,-0.00488281,0.100403
1.7525,0.00244141,0.0646973
1.753,0.00457764,0.0531006
1.7535,0.0,0.0210571
1.754,-0.00488281,0.0119019
1.7545,0.00213623,0.0262451
1.755,0.010376,-0.00152588
1.7555,0.017395,-0.00793457
1.756,0.0183105,0.0332642
1.7565,0.00946045,0.0485229
1.757,0.000915527,0.0332642
1.7575,-0.0164795,0.022583
1.758,-0.0344849,0.0195313
1.7585,-0.0375366,0.0186157
1.759,-0.039978,0.0192261
1.7595,-0.0476074,0.0195313
1.76,-0.0646973,0.0100708
1.7605,-0.0823975,0.00671387
1.761,-0.085144,0.00457764
1.7615,-0.0689697,0.0418091
1.762,-0.0445557,0.0726318
1.7625,-0.0292969,0.0830078
1.763,-0.0259399,0.0738525
1.7635,-0.0170898,0.0421143
1.764,0.00152588,0.00274658
1.7645,0.00854492,-0.00671387
1.765,0.00762939,-0.0106812
1.7655,-0.0289917,-0.0219727
1.766,-0.0372314,-0.0320435
1.7665,-0.0195313,-0.0570679
1.767,0.0183105,-0.171204
1.7675,0.072937,-0.323486
1.768,0.12146,-0.305176
1.7685,0.147095,-0.158386
1.769,0.145264,-0.00488281
1.7695,0.135803,0.101624
1.77,0.111084,0.23468
1.7705,0.0918579,0.319214
1.771,0.0875854,0.341187
1.7715,0.0674438,0.369568
1.772,0.0283813,0.328369
1.7725,-0.010376,0.27832
1.773,-0.0421143,0.25238
1.7735,-0.0726318,0.195618
1.774,-0.0827026,0.0643921
1.7745,-0.0634766,-0.0186157
1.775,-0.0396729,-0.223083
1.7755,-0.00915527,-0.687256
1.776,0.00579834,-0.749207
1.7765,0.0292969,-0.571899
1.777,0.0622559,-0.390625
1.7775,0.0701904,-0.242615
1.778,0.0479126,-0.224304
1.7785,0.0231934,-0.161133
1.779,-0.00244141,-0.050354
1.7795,-0.0109863,-0.00579834
1.78,-0.000610352,0.0192261
1.7805,-0.00213623,0.0546265
1.781,-0.0012207,0.102844
1.7815,0.0152588,0.156555
1.782,0.0259399,0.188599
1.7825,0.0210571,0.168457
1.783,0.00427246,-0.00335693
1.7835,-0.0222778,-0.217285
1.784,-0.0479126,-0.0463867
1.7845,-0.0564575,0.140686
1.785,-0.0650024,0.193787
1.7855,-0.093689,0.153198
1.786,-0.102844,0.114746
1.7865,-0.122375,0.109253
1.787,-0.147705,0.0933838
1.7875,-0.15564,0.101318
1.788,-0.127869,0.0811768
1.7885,-0.0991821,-0.0653076
1.789,-0.0717163,-0.078125
1.7895,-0.0436401,0.0088501
1.79,-0.0219727,0.0479126
1.7905,0.00305176,0.0143433
1.791,0.022583,-0.03479
1.7915,0.027771,0.0143433
1.792,0.0320435,0.0189209
1.7925,0.0418091,-0.0146484
1.793,0.0372314,-0.0378418
1.7935,0.0314331,-0.109558
1.794,0.0402832,-0.183716
1.7945,0.0640869,-0.106812
1.795,0.0827026,0.00335693
1.7955,0.0878906,0.0640869
1.796,0.090332,0.0994873
1.7965,0.0723267,0.115662
1.797,0.0552368,0.110168
1.7975,0.0491333,0.0839233
1.798,0.0427246,0.0653076
1.7985,0.0366211,0.0613403
1.799,0.0326538,0.0695801
1.7995,0.00762939,0.0604248
1.8,0.00152588,0.0125122
1.8005,0.0125122,-0.0778198
1.801,0.00518799,-0.169983
1.8015,-0.0146484,-0.16571
1.802,-0.03479,-0.0912476
1.8025,-0.0228882,-0.0448608
1.803,0.0137329,-0.0378418
1.8035,0.0396729,-0.0238037
1.804,0.0247192,-0.0234985
1.8045,-0.0161743,-0.0231934
1.805,-0.0344849,0.0177002
1.8055,-0.03479,0.0564575
1.806,-0.0338745,0.0912476
1.8065,-0.0299072,0.141907
1.807,-0.0253296,0.136719
1.8075,-0.0247192,0.0823975
1.808,-0.0350952,0.0314331
1.8085,-0.0421143,0.00823975
1.809,-0.0442505,0.00152588
1.8095,-0.0521851,0.0
1.81,-0.0634766,-0.00488281
1.8105,-0.0753784,0.00366211
1.811,-0.0769043,-0.00396729
1.8115,-0.0717163,-0.0213623
1.812,-0.0924683,-0.0631714
1.8125,-0.107727,-0.133972
1.813,-0.0961304,-0.0952148
1.8135,-0.0701904,0.0265503
1.814,-0.0314331,0.151062
1.8145,0.00732422,0.125732
1.815,0.0332642,0.0543213
1.8155,0.0491333,0.0183105
1.816,0.0604248,-0.065918
1.8165,0.0720215,-0.0531006
1.817,0.0811768,0.071106
1.8175,0.0924683,0.167542
1.818,0.103149,0.180664
1.8185,0.109253,0.173035
1.819,0.112,0.176086
1.8195,0.108643,0.178528
1.82,0.110779,0.148315
1.8205,0.130005,0.0973511
1.821,0.146484,0.0378418
1.8215,0.154724,-0.00457764
1.822,0.164795,-0.0299072
1.8225,0.130615,-0.0418091
1.823,0.0799561,-0.125122
1.8235,0.0390625,-0.300598
1.824,-0.00915527,-0.384216
1.8245,-0.0308228,-0.252686
1.825,-0.0222778,-0.153503
1.8255,-0.00183105,-0.179138
1.826,0.00213623,-0.124207
1.8265,-0.0244141,-0.0842285
1.827,-0.0567627,-0.0634766
1.8275,-0.0723267,-0.195618
1.828,-0.072937,-0.351868
1.8285,-0.0854492,-0.334473
1.829,-0.0967407,-0.200806
1.8295,-0.101929,-0.189514
1.83,-0.0918579,-0.179443
1.8305,-0.0775146,0.0149536
1.831,-0.050354,0.111694
1.8315,-0.0231934,0.13092
1.832,-0.00610352,0.141296
1.8325,0.00366211,0.146179
1.833,0.0241089,-0.00488281
1.8335,0.0305176,-0.210571
1.834,0.0204468,-0.110474
1.8345,-0.00488281,0.161438
1.835,-0.022583,0.349121
1.8355,-0.0332642,0.309143
1.836,-0.0415039,0.225525
1.8365,-0.0482178,0.175781
1.837,-0.0479126,0.152588
1.8375,-0.0558472,0.118408
1.838,-0.0692749,0.062561
1.8385,-0.072937,-0.0436401
1.839,-0.0653076,-0.0415039
1.8395,-0.0512695,0.00366211
1.84,-0.039978,0.0537109
1.8405,-0.0213623,0.0601196
1.841,-0.00427246,0.0222778
1.8415,0.00305176,-0.010376
1.842,0.00518799,-0.00457764
1.8425,0.00427246,0.00793457
1.843,0.00823975,0.015564
1.8435,0.00946045,0.0241089
1.844,0.0012207,0.0424194
1.8445,-0.00305176,0.0619507
1.845,-0.00213623,0.106506
1.8455,0.0,0.137939
1.846,-0.00244141,0.175171
1.8465,-0.0106812,0.168457
1.847,-0.017395,0.112915
1.8475,-0.0219727,0.107117
1.848,-0.0408936,0.0985718
1.8485,-0.0537109,0.0704956
1.849,-0.0579834,0.0256348
1.8495,-0.0402832,-0.00701904
1.85,-0.0115967,-0.0537109
1.8505,0.0210571,-0.19043
1.851,0.0442505,-0.328369
1.8515,0.062561,-0.310669
1.852,0.0650024,-0.240784
1.8525,0.0485229,-0.177307
1.853,0.0305176,-0.136719
1.8535,0.0265503,-0.103149
1.854,0.0149536,-0.0436401
1.8545,-0.0146484,-0.0265503
1.855,-0.0372314,-0.0772095
1.8555,-0.0469971,-0.236206
1.856,-0.0683594,-0.303345
1.8565,-0.09552,-0.0692749
1.857,-0.088501,0.137329
1.8575,-0.0366211,0.283203
1.858,0.0216675,0.331116
1.8585,0.0976563,0.287476
1.859,0.137939,0.203247
1.8595,0.13855,0.0860596
1.86,0.128479,0.0686646
1.8605,0.129089,0.138855
1.861,0.121765,0.0991821
1.8615,0.0927734,0.0604248
1.862,0.0790405,0.0241089
1.8625,0.0796509,0.00183105
1.863,0.0473022,0.0115967
1.8635,0.0125122,0.0830078
1.864,-0.00549316,0.141602
1.8645,-0.0152588,0.107727
1.865,-0.022583,-0.11322
1.8655,-0.0344849,-0.463562
1.866,-0.0323486,-0.427551
1.8665,-0.0137329,-0.173035
1.867,-0.000610352,-0.020752
1.8675,0.0134277,0.0311279
1.868,0.0238037,-0.0753784
1.8685,0.0344849,-0.128174
1.869,0.0375366,0.0305176
1.8695,0.0222778,0.065918
1.87,0.017395,-0.112
1.8705,0.017395,-0.204468
1.871,0.0265503,-0.263977
1.8715,0.0299072,-0.133972
1.872,0.0131226,-0.00640869
1.8725,0.00183105,0.0350952
1.873,-0.0317383,0.0418091
1.8735,-0.0686646,0.0537109
1.874,-0.0958252,0.0634766
1.8745,-0.122375,0.0671387
1.875,-0.1474,0.083313
1.8755,-0.161133,0.0982666
1.876,-0.203247,0.10498
1.8765,-0.210571,0.102539
1.877,-0.188293,0.119324
1.8775,-0.152893,0.127258
1.878,-0.11261,0.163574
1.8785,-0.0741577,0.170898
1.879,-0.0421143,0.135498
1.8795,-0.00610352,0.12085
1.88,0.0192261,0.117188
1.8805,0.0390625,0.0958252
1.881,0.0616455,0.0906372
1.8815,0.0793457,0.0335693
1.882,0.0753784,-0.010376
1.8825,0.0698853,-0.00305176
1.883,0.0820923,-0.101929
1.8835,0.100403,-0.237427
1.884,0.0979614,-0.223083
1.8845,0.119019,-0.172729
1.885,0.158081,-0.0689697
1.8855,0.182495,0.050354
1.886,0.191956,0.0427246
1.8865,0.171204,0.0961304
1.887,0.114136,0.120239
1.8875,0.0860596,0.0100708
1.888,0.0595093,-0.0552368
1.8885,0.0421143,-0.0436401
1.889,0.0158691,-0.085144
1.8895,-0.00732422,-0.177002
1.89,-0.0128174,-0.255432
1.8905,-0.0216675,-0.183105
1.891,-0.0323486,-0.038147
1.8915,-0.0488281,-0.0442505
1.892,-0.0549316,-0.220642
1.8925,-0.0646973,-0.243225
1.893,-0.0769043,-0.113525
1.8935,-0.0759888,-0.022583
1.894,-0.0588989,0.00244141
1.8945,-0.0512695,-0.00244141
1.895,-0.0650024,-0.0769043
1.8955,-0.0790405,-0.211182
1.896,-0.0390625,-0.0256348
1.8965,0.0396729,0.228882
1.897,0.0616455,0.32196
1.8975,0.0491333,0.312805
1.898,0.0311279,0.255737
1.8985,0.0170898,0.171204
1.899,0.00701904,0.0906372
1.8995,-0.00518799,0.0457764
1.9,-0.0250244,0.032959
1.9005,-0.0387573,0.0500488
1.901,-0.0469971,0.0680542
1.9015,-0.0671387,0.0683594
1.902,-0.0839233,0.0628662
1.9025,-0.0741577,0.0515747
1.903,-0.0479126,0.0198364
1.9035,-0.0149536,-0.0375366
1.904,0.00335693,-0.0836182
1.9045,0.0289917,-0.0463867
1.905,0.0546265,0.000305176
1.9055,0.0439453,0.0131226
1.906,0.027771,0.0112915
1.9065,0.015564,0.00732422
1.907,0.00457764,0.00610352
1.9075,-0.00396729,0.0146484
1.908,-0.0180054,0.0366211
1.9085,-0.0366211,0.0390625
1.909,-0.0689697,0.0384521
1.9095,-0.10376,0.0341797
1.91,-0.105591,0.0390625
1.9105,-0.088501,0.0350952
1.911,-0.0735474,0.039978
1.9115,-0.0482178,0.0680542
1.912,-0.0109863,0.111694
1.9125,0.0228882,0.120239
1.913,0.0323486,0.120544
1.9135,0.0357056,0.133057
1.914,0.0253296,0.0619507
1.9145,0.00335693,-0.181885
1.915,-0.0265503,-0.201721
1.9155,-0.050354,-0.0759888
1.916,-0.0769043,-0.00366211
1.9165,-0.0888062,0.032959
1.917,-0.0796509,-0.0137329
1.9175,-0.0570679,-0.0756836
1.918,-0.0363159,-0.198975
1.9185,0.0137329,-0.372009
1.919,0.0631714,-0.265808
1.9195,0.0866699,0.0256348
1.92,0.0930786,0.149231
1.9205,0.0830078,0.178223
1.921,0.0595093,-0.0360107
1.9215,0.0460815,-0.104675
1.922,0.0405884,-0.0189209
1.9225,0.0369263,-0.188904
1.923,0.0466919,-0.343323
1.9235,0.0521851,-0.321655
1.924,0.0595093,-0.170593
1.9245,0.0656128,-0.067749
1.925,0.0683594,0.00671387
1.9255,0.0723267,0.0744629
1.926,0.083313,0.0683594
1.9265,0.0891113,0.0732422
1.927,0.0753784,0.0628662
1.9275,0.0671387,0.0588989
1.928,0.0546265,0.0787354
1.9285,0.0299072,0.083313
1.929,0.00640869,0.147705
1.9295,-0.00732422,0.1828
1.93,-0.017395,0.177917
1.9305,-0.0250244,0.090332
1.931,-0.0128174,-0.0982666
1.9315,0.00152588,-0.12085
1.932,-0.00152588,-0.122375
1.9325,-0.0128174,-0.0430298
1.933,-0.0180054,0.0360107
1.9335,-0.0106812,0.0354004
1.934,-0.00427246,0.0958252
1.9345,-0.0115967,0.224609
1.935,-0.0280762,0.246887
1.9355,-0.0402832,0.188599
1.936,-0.0332642,0.132446
1.9365,-0.0180054,0.055542
1.937,-0.0234985,0.00946045
1.9375,-0.0418091,-0.0088501
1.938,-0.0497437,-0.106506
1.9385,-0.0540161,-0.181885
1.939,-0.0653076,-0.204163
1.9395,-0.0796509,-0.0915527
1.94,-0.088501,0.017395
1.9405,-0.0952148,0.0292969
1.941,-0.0939941,0.0411987
1.9415,-0.0930786,0.09552
1.942,-0.0778198,0.146179
1.9425,-0.0585938,0.187378
1.943,-0.0323486,0.170898
1.9435,-0.0164795,0.119934
1.944,0.00396729,0.111084
1.9445,0.0317383,0.118103
1.945,0.0576782,0.0378418
1.9455,0.0769043,-0.152283
1.946,0.0708008,-0.250854
1.9465,0.0488281,-0.158997
1.947,0.0271606,-0.15625
1.9475,0.0189209,-0.44281
1.948,0.0268555,-0.518799
1.9485,0.0436401,-0.293274
1.949,0.0613403,-0.0662231
1.9495,0.0793457,0.0985718
1.95,0.110779,0.152893
1.9505,0.116577,-0.0708008
1.951,0.0985718,-0.238342
1.9515,0.062561,-0.102844
1.952,0.0320435,0.0396729
1.9525,-0.0146484,0.0592041
1.953,-0.0585938,0.114136
1.9535,-0.0680542,0.184326
1.954,-0.0524902,0.172729
1.9545,-0.0286865,0.0250244
1.955,-0.00213623,0.0335693
1.9555,0.0146484,0.117798
1.956,0.0262451,0.133057
1.9565,0.0302124,0.136719
1.957,0.0234985,0.109253
1.9575,0.0128174,0.0689697
1.958,-0.0112915,0.0244141
1.9585,-0.0256348,-0.0915527
1.959,-0.0338745,-0.198669
1.9595,-0.0473022,-0.139465
1.96,-0.0482178,-0.0411987
1.9605,-0.0250244,0.0445557
1.961,-0.00213623,0.0289917
1.9615,-0.0375366,-0.150146
1.962,-0.0866699,-0.127563
1.9625,-0.0808716,0.0259399
1.963,-0.0390625,0.10376
1.9635,-0.0164795,0.172119
1.964,-0.0219727,0.215149
1.9645,-0.0164795,0.038147
1.965,-0.000305176,-0.149841
1.9655,0.00946045,-0.15625
1.966,0.0292969,-0.0845337
1.9665,0.0506592,0.0900269
1.967,0.0457764,0.114441
1.9675,0.0158691,-0.0115967
1.968,-0.0177002,-0.0836182
1.9685,-0.0372314,-0.0497437
1.969,-0.045166,-0.0241089
1.9695,-0.0454712,-0.0198364
1.97,-0.0552368,0.0482178
1.9705,-0.0628662,0.219421
1.971,-0.0637817,0.231018
1.9715,-0.0695801,0.0949097
1.972,-0.0878906,0.0238037
1.9725,-0.0912476,0.0125122
1.973,-0.0543213,0.0109863
1.9735,-0.0250244,0.0164795
1.974,-0.0210571,0.0311279
1.9745,0.00823975,0.032959
1.975,0.0427246,0.0250244
1.9755,0.0543213,0.00610352
1.976,0.0799561,-0.0180054
1.9765,0.130005,-0.0234985
1.977,0.175781,-0.0274658
1.9775,0.177307,-0.0161743
1.978,0.132446,-0.0244141
1.9785,0.0802612,-0.0402832
1.979,0.0601196,-0.0537109
1.9795,0.0494385,-0.0662231
1.98,0.0280762,-0.0488281
1.9805,-0.0167847,-0.0195313
1.981,-0.0567627,0.0222778
1.9815,-0.0790405,0.0527954
1.982,-0.0817871,0.0888062
1.9825,-0.0717163,0.0439453
1.983,-0.0463867,-0.0396729
1.9835,-0.0375366,-0.00457764
1.984,-0.0247192,0.0427246
1.9845,-0.00457764,0.0747681
1.985,0.0128174,0.0839233
1.9855,0.0115967,0.0857544
1.986,0.00213623,0.133362
1.9865,-0.00793457,0.160217
1.987,-0.0125122,0.0888062
1.9875,-0.00244141,0.179138
1.988,0.0170898,0.354614
1.9885,0.0552368,0.241089
1.989,0.0900269,0.0216675
1.9895,0.111694,-0.0704956
1.99,0.12207,-0.0588989
1.9905,0.102234,-0.0219727
1.991,0.0814819,-0.0720215
1.9915,0.0653076,-0.300598
1.992,0.0595093,-0.54657
1.9925,0.0534058,-0.636292
1.993,0.0512695,-0.729065
1.9935,0.0375366,-0.564575
1.994,0.0119019,-0.351868
1.9945,-0.0189209,-0.20813
1.995,-0.0466919,0.0158691
1.9955,-0.0732422,0.206299
1.996,-0.0866699,0.236816
1.9965,-0.0921631,0.0976563
1.997,-0.0985718,0.0149536
1.9975,-0.0994873,0.117493
1.998,-0.0939941,0.195618
1.9985,-0.0845337,0.180359
1.999,-0.0726318,0.0894165
1.9995,-0.0686646,0.0366211
2.0,-0.0708008,0.067749
2.0005,-0.0827026,0.0262451
2.001,-0.0857544,-0.214539
2.0015,-0.0762939,-0.139465
2.002,-0.0491333,0.232849
2.0025,-0.0152588,0.20813
2.003,0.000610352,0.0253296
2.0035,-0.000610352,-0.137024
2.004,0.00213623,-0.169067
2.0045,0.0183105,0.00213623
2.005,0.0466919,0.189209
2.0055,0.0756836,0.198669
2.006,0.0888062,0.150452
2.0065,0.0927734,0.0723267
2.007,0.0881958,0.0448608
2.0075,0.0592041,0.127258
2.008,0.0170898,0.17395
2.0085,-0.0137329,0.153809
2.009,-0.0274658,0.0921631
2.0095,-0.0360107,-0.0448608
2.01,-0.0421143,-0.0921631
2.0105,-0.0204468,0.0506592
2.011,0.0234985,0.101929
2.0115,0.108337,0.0369263
2.012,0.161743,-0.039978
2.0125,0.128479,-0.102234
2.013,0.0701904,-0.213318
2.0135,0.0689697,-0.271912
2.014,0.0732422,-0.280762
2.0145,0.0564575,-0.233459
2.015,0.0296021,-0.174255
2.0155,-0.00183105,-0.0671387
2.016,-0.0219727,0.0643921
2.0165,-0.0271606,0.136719
2.017,-0.0286865,0.150146
2.0175,-0.0302124,0.139771
2.018,-0.0292969,0.13031
2.0185,-0.038147,0.133362
2.019,-0.0460815,0.135193
2.0195,-0.0402832,0.124817
2.02,-0.0177002,0.0387573
2.0205,-0.00244141,-0.09552
2.021,-0.0210571,-0.131531
2.0215,-0.0604248,-0.151367
2.022,-0.108643,-0.185547
2.0225,-0.135498,-0.146484
2.023,-0.148621,-0.039978
2.0235,-0.150757,0.0454712
2.024,-0.137329,0.0732422
2.0245,-0.117188,0.0476074
2.025,-0.0994873,0.0186157
2.0255,-0.0720215,0.0326538
2.026,-0.0415039,0.0860596
2.0265,-0.03479,0.104065
2.027,-0.0183105,0.0994873
2.0275,-0.00976563,0.0656128
2.028,-0.00366211,0.0408936
2.0285,-0.000305176,0.0341797
2.029,0.00854492,0.0469971
2.0295,0.0115967,0.0631714
2.03,0.0341797,-0.00762939
2.0305,0.0454712,-0.153503
2.031,0.0439453,-0.114746
2.0315,0.039978,-0.00457764
2.032,0.0442505,0.0595093
2.0325,0.0479126,0.0881958
2.033,0.0549316,0.0958252
2.0335,0.0680542,0.0680542
2.034,0.0692749,0.0314331
2.0345,0.067749,-0.00427246
2.035,0.0534058,-0.0671387
2.0355,0.0265503,-0.098877
2.036,0.00274658,-0.0772095
2.0365,0.00396729,-0.114136
2.037,0.0186157,-0.179749
2.0375,0.0350952,-0.102539
2.038,0.0497437,-0.00579834
2.0385,0.0473022,0.0518799
2.039,0.055542,0.0366211
2.0395,0.0671387,0.055542
2.04,0.0784302,0.11261
2.0405,0.0747681,0.232239
2.041,0.0708008,0.365906
2.0415,0.0692749,0.249634
2.042,0.0509644,0.0994873
2.0425,0.0271606,0.0167847
2.043,0.015564,-0.0161743
2.0435,-0.00518799,-0.0564575
2.044,-0.027771,-0.259094
2.0445,-0.0216675,-0.364075
2.045,-0.0201416,-0.302734
2.0455,-0.0213623,-0.204468
2.046,-0.0411987,-0.134583
2.0465,-0.0704956,-0.0537109
2.047,-0.0750732,0.0231934
2.0475,-0.0637817,0.0579834
2.048,-0.0531006,0.0723267
2.0485,-0.0418091,0.107422
2.049,-0.0286865,0.187378
2.0495,-0.0262451,0.234985
2.05,-0.0302124,0.217285
2.0505,-0.0128174,0.255737
2.051,0.0146484,0.334473
2.0515,0.0344849,0.325317
2.052,0.0350952,0.215149
2.0525,0.0161743,0.0311279
2.053,-0.00396729,-0.295105
2.0535,-0.012207,-0.386963
2.054,-0.012207,-0.22583
2.0545,0.00671387,-0.188599
2.055,0.0268555,-0.350037
2.0555,0.0311279,-0.316162
2.056,0.0308228,-0.127258
2.0565,0.0238037,-0.00671387
2.057,0.0170898,-0.0369263
2.0575,0.0134277,-0.0634766
2.058,0.00183105,-0.045166
2.0585,-0.0161743,-0.0671387
2.059,-0.0149536,-0.11261
2.0595,-0.00579834,-0.0634766
2.06,-0.03479,0.0289917
2.0605,-0.143433,0.0518799
2.061,-0.214233,0.0668335
2.0615,-0.221558,0.0881958
2.062,-0.170593,0.13916
2.0625,-0.102234,0.17334
2.063,-0.045166,0.202332
2.0635,-0.0115967,0.204468
2.064,0.0241089,0.101929
2.0645,0.0543213,0.0357056
2.065,0.0796509,0.116882
2.0655,0.0848389,0.123291
2.066,0.050354,-0.136719
2.0665,0.0198364,-0.324707
2.067,0.00701904,-0.3125
2.0675,0.00366211,-0.193176
2.068,0.032959,-0.115967
2.0685,0.0582886,0.0265503
2.069,0.0640869,0.0286865
2.0695,0.0796509,-0.328369
2.07,0.11261,-0.422668
2.0705,0.160217,-0.232544
2.071,0.14801,-0.155029
2.0715,0.0970459,-0.178528
2.072,0.0320435,-0.125427
2.0725,-0.00793457,0.0494385
2.073,-0.0158691,0.136719
2.0735,-0.000305176,0.131836
2.074,0.0506592,0.143127
2.0745,0.0994873,0.215454
2.075,0.109863,0.273132
2.0755,0.0726318,0.168457
2.076,0.0411987,0.209656
2.0765,0.0305176,0.289307
2.077,0.0164795,0.260925
2.0775,-0.000610352,0.21759
2.078,-0.0167847,0.196838
2.0785,-0.0299072,0.183716
2.079,-0.0396729,0.133972
2.0795,-0.0460815,0.0460815
2.08,-0.0485229,0.00823975
2.0805,-0.043335,-0.00366211
2.081,-0.0241089,-0.0109863
2.0815,-0.0140381,-0.00183105
2.082,-0.0177002,0.0256348
2.0825,-0.0320435,0.0564575
2.083,-0.0698853,0.0424194
2.0835,-0.0897217,-0.0183105
2.084,-0.0946045,-0.0924683
2.0845,-0.0854492,-0.151672
2.085,-0.0759888,-0.170288
2.0855,-0.0585938,-0.160217
2.086,-0.0518799,-0.122375
2.0865,-0.0473022,-0.0588989
2.087,-0.0448608,-0.00335693
2.0875,-0.0424194,0.00823975
2.088,-0.0418091,0.00762939
2.0885,-0.0326538,0.0183105
2.089,-0.0234985,0.0283813
2.0895,-0.015564,0.0402832
2.09,-0.00976563,-0.0366211
2.0905,-0.00640869,-0.220642
2.091,0.00152588,-0.172424
2.0915,0.0012207,-0.0671387
2.092,0.00671387,-0.0244141
2.0925,0.0177002,-0.0228882
2.093,0.0137329,-0.017395
2.0935,-0.00671387,-0.0088501
2.094,-0.0241089,0.00335693
2.0945,-0.0305176,0.0183105
2.095,-0.0424194,0.0234985
2.0955,-0.0613403,0.0253296
2.096,-0.0674438,0.0265503
2.0965,-0.0717163,0.0265503
2.097,-0.0708008,0.0253296
2.0975,-0.0524902,0.0213623
2.098,-0.0204468,0.0177002
2.0985,0.010376,0.00976563
2.099,0.0360107,0.00518799
2.0995,0.0564575,0.0109863
2.1,0.0714111,0.0170898
2.1005,0.0765991,0.0213623
2.101,0.0787354,0.0299072
2.1015,0.071106,0.038147
2.102,0.0601196,0.0741577
2.1025,0.0485229,0.122375
2.103,0.0482178,0.191956
2.1035,0.0552368,0.223694
2.104,0.0698853,0.247803
2.1045,0.0869751,0.222778
2.105,0.101624,0.172424
2.1055,0.0906372,0.0637817
2.106,0.0537109,-0.06073
2.1065,0.0286865,-0.151062
2.107,0.0131226,-0.191956
2.1075,0.00305176,-0.181274
2.108,-0.00305176,-0.227966
2.1085,-0.00762939,-0.32196
2.109,-0.0201416,-0.456238
2.1095,-0.0335693,-0.610046
2.11,-0.039978,-0.470276
2.1105,-0.0250244,-0.0958252
2.111,-0.00793457,0.126648
2.1115,-0.00671387,0.259399
2.112,-0.0262451,0.371704
2.1125,-0.0341797,0.291748
2.113,-0.0387573,0.124817
2.1135,-0.0601196,0.0784302
2.114,-0.0646973,0.0979614
2.1145,-0.0482178,-0.0805664
2.115,-0.0338745,-0.108337
2.1155,-0.0256348,0.0302124
2.116,-0.0140381,0.0595093
2.1165,0.00457764,-0.0759888
2.117,0.0158691,-0.125732
2.1175,0.0088501,-0.0308228
2.118,0.00366211,0.0158691
2.1185,0.00366211,0.0146484
2.119,0.00427246,-0.00213623
2.1195,0.00305176,0.00549316
2.12,-0.00152588,0.0384521
2.1205,0.000915527,0.149841
2.121,-0.00915527,0.200806
2.1215,-0.0164795,0.0616455
2.122,-0.0125122,-0.00427246
2.1225,-0.000305176,0.0500488
2.123,0.0119019,0.0964355
2.1235,0.0228882,0.0875854
2.124,0.0296021,0.0299072
2.1245,0.0274658,0.00610352
2.125,0.00366211,-0.101013
2.1255,-0.0387573,-0.396423
2.126,-0.0598145,-0.533142
2.1265,-0.0726318,-0.266113
2.127,-0.0762939,-0.0128174
2.1275,-0.0775146,0.118713
2.128,-0.12146,0.172424
2.1285,-0.207825,0.175781
2.129,-0.253601,0.215759
2.1295,-0.23407,0.114746
2.13,-0.131836,0.223083
2.1305,-0.00305176,0.369873
2.131,0.0619507,0.221252
2.1315,0.0894165,0.00946045
2.132,0.108948,0.00183105
2.1325,0.14679,0.0744629
2.133,0.172729,0.111084
2.1335,0.17395,0.115356
2.134,0.1651,0.0320435
2.1345,0.16449,-0.0344849
2.135,0.148315,-0.0289917
2.1355,0.133972,-0.19104
2.136,0.130005,-0.473022
2.1365,0.155029,-0.412903
2.137,0.228577,-0.224609
2.1375,0.275574,-0.122681
2.138,0.30426,-0.172119
2.1385,0.315552,-0.293274
2.139,0.270691,-0.286255
2.1395,0.166016,-0.190125
2.14,0.0753784,-0.0518799
2.1405,0.0317383,0.032959
2.141,0.0112915,0.083313
2.1415,0.000305176,0.0994873
2.142,-0.032959,0.0973511
2.1425,-0.0756836,0.101929
2.143,-0.10498,0.106812
2.1435,-0.118713,0.111084
2.144,-0.129395,0.112
2.1445,-0.157776,0.112915
2.145,-0.171204,0.111694
2.1455,-0.176392,0.111389
2.146,-0.18158,0.0985718
2.1465,-0.172729,0.0494385
2.147,-0.150146,-0.0238037
2.1475,-0.136414,-0.0299072
2.148,-0.141907,0.00640869
2.1485,-0.151062,0.0311279
2.149,-0.142212,0.0311279
2.1495,-0.114746,0.0268555
2.15,-0.0823975,0.0357056
2.1505,-0.0650024,0.0534058
2.151,-0.0531006,0.0506592
2.1515,-0.0460815,0.0430298
2.152,-0.045166,0.0393677
2.1525,-0.0387573,0.0485229
2.153,-0.0320435,0.0567627
2.1535,-0.045166,0.0558472
2.154,-0.0497437,0.0454712
2.1545,-0.0524902,0.0354004
2.155,-0.0445557,0.0296021
2.1555,-0.0299072,0.0234985
2.156,-0.00762939,0.0302124
2.1565,0.00854492,0.0531006
2.157,0.0192261,0.0524902
2.1575,0.0302124,0.0427246
2.158,0.0354004,0.0338745
2.1585,0.0283813,0.0198364
2.159,0.0332642,-0.0109863
2.1595,0.032959,-0.0180054
2.16,0.0286865,0.00732422
2.1605,0.0308228,0.0308228
2.161,0.0378418,0.0387573
2.1615,0.0457764,0.0354004
2.162,0.0506592,-0.00488281
2.1625,0.0418091,-0.0610352
2.163,0.0283813,-0.138855
2.1635,0.0143433,-0.115051
2.164,0.00427246,-0.0756836
2.1645,-0.0012207,-0.0619507
2.165,-0.0137329,-0.0448608
2.1655,-0.0219727,-0.00457764
2.166,-0.015564,-0.00854492
2.1665,-0.0186157,-0.149841
2.167,-0.0271606,-0.39917
2.1675,-0.0140381,-0.270386
2.168,0.00213623,-0.0405884
2.1685,0.00152588,0.000610352
2.169,-0.0192261,0.0164795
2.1695,-0.0320435,0.0186157
2.17,-0.0268555,0.0137329
2.1705,-0.017395,0.027771
2.171,-0.00976563,0.0436401
2.1715,0.0012207,0.0610352
2.172,0.00976563,0.0805664
2.1725,0.0192261,0.116577
2.173,0.0354004,0.120239
2.1735,0.0488281,0.0994873
2.174,0.0628662,0.115051
2.1745,0.0747681,0.143738
2.175,0.0808716,0.127563
2.1755,0.0793457,0.0964355
2.176,0.0720215,0.0643921
2.1765,0.0610352,0.0524902
2.177,0.0476074,0.0396729
2.1775,0.0268555,0.0088501
2.178,0.0109863,-0.0567627
2.1785,-0.0119019,-0.0509644
2.179,-0.0302124,0.00457764
2.1795,-0.0689697,0.0140381
2.18,-0.0759888,-0.122375
2.1805,-0.088501,-0.241394
2.181,-0.125122,-0.160217
2.1815,-0.159912,0.0875854
2.182,-0.135193,0.129089
2.1825,-0.0799561,0.039978
2.183,-0.0131226,0.017395
2.1835,0.0405884,0.0765991
2.184,0.0576782,0.133057
2.1845,0.0631714,0.225525
2.185,0.067749,0.189514
2.1855,0.072937,0.0924683
2.186,0.0836182,0.083313
2.1865,0.101013,0.050354
2.187,0.0933838,-0.0933838
2.1875,0.104065,-0.155945
2.188,0.145874,-0.0531006
2.1885,0.171814,-0.0271606
2.189,0.197449,-0.166931
2.1895,0.197754,-0.463562
2.19,0.154724,-0.438843
2.1905,0.0927734,-0.181885
2.191,0.039978,0.0430298
2.1915,0.0,0.164795
2.192,-0.0344849,0.020752
2.1925,-0.0631714,-0.292969
2.193,-0.0805664,-0.331116
2.1935,-0.0616455,-0.180359
2.194,0.00579834,-0.0714111
2.1945,0.0314331,-0.0494385
2.195,0.010376,-0.0189209
2.1955,-0.0112915,-0.00244141
2.196,-0.0289917,0.0265503
2.1965,-0.0164795,0.0888062
2.197,0.00579834,0.122681
2.1975,0.000610352,0.102234
2.198,-0.0418091,0.0814819
2.1985,-0.0585938,0.105286
2.199,-0.0820923,0.128174
2.1995,-0.105591,0.0982666
2.2,-0.112,0.108948
2.2005,-0.113525,0.142822
2.201,-0.116882,0.169373
2.2015,-0.117493,0.199585
2.202,-0.108948,0.232239
2.2025,-0.0921631,0.158691
2.203,-0.0799561,0.0494385
2.2035,-0.0747681,0.00793457
2.204,-0.0650024,-0.0280762
2.2045,-0.0613403,-0.151672
2.205,-0.0732422,-0.272217
2.2055,-0.0881958,-0.303345
2.206,-0.0900269,-0.276489
2.2065,-0.0680542,-0.313416
2.207,-0.0411987,-0.29541
2.2075,-0.0100708,-0.180664
2.208,0.00732422,-0.0921631
2.2085,0.0189209,0.0177002
2.209,0.017395,0.261536
2.2095,0.0140381,0.394897
2.21,0.0268555,0.270081
2.2105,0.0408936,0.140076
2.211,0.0469971,0.0848389
2.2115,0.050354,0.0732422
2.212,0.0482178,0.0692749
2.2125,0.0494385,0.0592041
2.213,0.0485229,0.0546265
2.2135,0.0488281,0.0488281
2.214,0.0436401,0.0219727
2.2145,0.032959,0.00152588
2.215,0.0234985,0.0140381
2.2155,0.0125122,0.0457764
2.216,0.00488281,0.0689697
2.2165,0.00183105,0.0112915
2.217,0.00915527,-0.072937
2.2175,0.0222778,-0.0790405
2.218,0.0259399,-0.0735474
2.2185,0.0119019,-0.0216675
2.219,-0.0112915,0.0210571
2.2195,-0.0189209,0.0457764
2.22,-0.0201416,0.0570679
2.2205,-0.0320435,-0.0210571
2.221,-0.0357056,-0.197449
2.2215,-0.0158691,-0.143127
2.222,0.000305176,0.0241089
2.2225,0.010376,0.158386
2.223,0.00305176,0.198364
2.2235,-0.00183105,0.195007
2.224,-0.00518799,0.184937
2.2245,0.000915527,0.193176
2.225,-0.00366211,0.193787
2.2255,-0.0213623,0.183411
2.226,-0.0369263,0.162048
2.2265,-0.0323486,0.129089
2.227,-0.00976563,0.0695801
2.2275,0.0216675,-0.0317383
2.228,0.0540161,-0.118408
2.2285,0.0598145,-0.197144
2.229,0.0582886,-0.198059
2.2295,0.0369263,-0.288391
2.23,0.0204468,-0.434265
2.2305,0.0134277,-0.448914
2.231,0.0180054,-0.443726
2.2315,0.0253296,-0.500793
2.232,0.0463867,-0.307312
2.2325,0.083313,-0.0436401
2.233,0.121765,0.0411987
2.2335,0.133972,-0.0424194
2.234,0.118713,-0.0387573
2.2345,0.0701904,0.0308228
2.235,0.0253296,0.083313
2.2355,-0.0280762,0.0912476
2.236,-0.0756836,0.0906372
2.2365,-0.0894165,0.0891113
2.237,-0.0918579,0.103149
2.2375,-0.0891113,0.124817
2.238,-0.0762939,0.150452
